D:\MassHunter\GCMS\1\data\Stachys_bullata\FINAL_RUNS\EC81.D 16 Mar 20  09:16 pm
Start of data points
3.09252,13881
3.09823,13276
3.10395,13688
3.10968,13518
3.1154,13833
3.12112,13975
3.12685,14329
3.13257,12655
3.13828,13460
3.14402,12180
3.14973,13370
3.15545,11181
3.16118,11254
3.1669,10370
3.17262,10382
3.17835,10032
3.18407,9810
3.18978,9991
3.19552,10936
3.20123,9692
3.20695,10118
3.21268,9287
3.2184,9440
3.22412,8739
3.22985,8972
3.23557,8908
3.24128,8276
3.247,9390
3.25273,7865
3.25845,7371
3.26417,8541
3.2699,8746
3.27562,9066
3.28133,8641
3.28707,8972
3.29278,8697
3.2985,8818
3.30423,9349
3.30995,8180
3.31567,8488
3.3214,8393
3.32712,10079
3.33283,8701
3.33857,8161
3.34428,7365
3.35,7052
3.35573,6601
3.36145,7888
3.36717,7697
3.3729,6626
3.37862,6990
3.38433,7222
3.39007,7323
3.39578,5893
3.4015,6067
3.40722,6875
3.41295,5769
3.41867,6398
3.42438,7373
3.43012,6535
3.43583,6100
3.44155,7144
3.44728,6518
3.453,6314
3.45872,5858
3.46445,5611
3.47017,6208
3.47588,5218
3.48162,4767
3.48733,5824
3.49305,5194
3.49878,5150
3.5045,5808
3.51022,5423
3.51595,4779
3.52167,6226
3.52738,5650
3.53312,5724
3.53883,5340
3.54455,5664
3.55028,5551
3.556,5464
3.56172,5226
3.56745,5215
3.57317,5152
3.57888,5231
3.5846,4946
3.59033,4212
3.59605,3680
3.60177,3725
3.6075,5100
3.61322,4402
3.61893,5498
3.62467,4524
3.63038,4783
3.6361,4517
3.64183,4979
3.64755,4983
3.65327,4515
3.659,4716
3.66472,4371
3.67043,3648
3.67617,4833
3.68188,5195
3.6876,4869
3.69333,4291
3.69905,4640
3.70477,5144
3.7105,4517
3.71622,4209
3.72193,5326
3.72767,3951
3.73338,4660
3.7391,5123
3.74482,4821
3.75055,3902
3.75627,4376
3.76198,4601
3.76772,3985
3.77343,4272
3.77915,3515
3.78488,3848
3.7906,3622
3.79632,3619
3.80205,3716
3.80777,3132
3.81348,4152
3.81922,3767
3.82493,3876
3.83065,4473
3.83638,4277
3.8421,3644
3.84782,3840
3.85355,4106
3.85927,4725
3.86498,3828
3.87072,3718
3.87643,4069
3.88215,3900
3.88788,4145
3.8936,4366
3.89932,3971
3.90505,3680
3.91077,4083
3.91648,3549
3.9222,4056
3.92793,3854
3.93365,4964
3.93937,3895
3.9451,3334
3.95082,3644
3.95653,3162
3.96227,4240
3.96798,4747
3.9737,5724
3.97943,8542
3.98515,12756
3.99087,16275
3.9966,19375
4.00232,20043
4.00803,15361
4.01377,14818
4.01948,12934
4.0252,8869
4.03093,7689
4.03665,8305
4.04237,6155
4.0481,6173
4.05382,5472
4.05953,4467
4.06527,3629
4.07098,3250
4.0767,3238
4.08243,3559
4.08815,3319
4.09387,3038
4.09958,2851
4.10532,3108
4.11103,2545
4.11675,3464
4.12248,2963
4.1282,3128
4.13392,2607
4.13965,3294
4.14537,2900
4.15108,3153
4.15682,2939
4.16253,2677
4.16825,3213
4.17398,2441
4.1797,2562
4.18542,2464
4.19115,2260
4.19687,2810
4.20258,2577
4.20832,2286
4.21403,2355
4.21975,2485
4.22548,2713
4.2312,2383
4.23692,2402
4.24265,2298
4.24837,2241
4.25408,2539
4.25982,2154
4.26553,2569
4.27125,2614
4.27697,2391
4.2827,2192
4.28842,2742
4.29413,2561
4.29987,2701
4.30558,2680
4.3113,2499
4.31703,2251
4.32275,2397
4.32847,2924
4.3342,2185
4.33992,3006
4.34563,2845
4.35137,2593
4.35708,2404
4.3628,2301
4.36853,2449
4.37425,2501
4.37997,2448
4.3857,2660
4.39142,2720
4.39713,3313
4.40287,4400
4.40858,4439
4.4143,3985
4.42003,4319
4.42575,4410
4.43147,3212
4.43718,2201
4.44292,2887
4.44863,2782
4.45435,2393
4.46008,3408
4.4658,2876
4.47152,2755
4.47725,3058
4.48297,2455
4.48868,2539
4.49442,2591
4.50013,2359
4.50585,2650
4.51158,2273
4.5173,2396
4.52302,2398
4.52875,1986
4.53447,2247
4.54018,2405
4.54592,2550
4.55163,2372
4.55735,2567
4.56308,2215
4.5688,2274
4.57452,2299
4.58025,2540
4.58597,3008
4.59168,2293
4.59742,2338
4.60313,2269
4.60885,2514
4.61457,2196
4.6203,3021
4.62602,2179
4.63173,1903
4.63747,2660
4.64318,2188
4.6489,1827
4.65463,2346
4.66035,2409
4.66607,2013
4.6718,2069
4.67752,2192
4.68323,2178
4.68897,1986
4.69468,2473
4.7004,2558
4.70613,2207
4.71185,3296
4.71757,5362
4.7233,9264
4.72902,13021
4.73473,17088
4.74047,16068
4.74618,12629
4.7519,10990
4.75763,8533
4.76335,6440
4.76907,5887
4.7748,5141
4.78052,3883
4.78623,3943
4.79195,3932
4.79768,3667
4.8034,3438
4.80912,3674
4.81485,3103
4.82057,2589
4.82628,3437
4.83202,2798
4.83773,2922
4.84345,3280
4.84918,2466
4.8549,3106
4.86062,3219
4.86635,3067
4.87207,2927
4.87778,2911
4.88352,2606
4.88923,2710
4.89495,2428
4.90068,2395
4.9064,2861
4.91212,3107
4.91785,2598
4.92357,2670
4.92928,2776
4.93502,2567
4.94073,2744
4.94645,2738
4.95217,3202
4.9579,3454
4.96362,2876
4.96933,4405
4.97507,4791
4.98078,4658
4.9865,4209
4.99223,3950
4.99795,4093
5.00367,3820
5.0094,2866
5.01512,3446
5.02083,2122
5.02657,2731
5.03228,2829
5.038,2434
5.04373,2868
5.04945,2483
5.05517,2772
5.0609,3052
5.06662,3653
5.07233,2433
5.07807,3233
5.08378,3172
5.0895,2532
5.09523,1908
5.10095,2120
5.10667,2436
5.1124,2713
5.11812,2386
5.12383,2425
5.12955,2838
5.13528,3132
5.141,2510
5.14672,2556
5.15245,2855
5.15817,2870
5.16388,2728
5.16962,2608
5.17533,2620
5.18105,2286
5.18678,2482
5.1925,2043
5.19822,2545
5.20395,2551
5.20967,2910
5.21538,3029
5.22112,2018
5.22683,2055
5.23255,1882
5.23828,2146
5.244,2477
5.24972,2468
5.25545,2812
5.26117,2534
5.26688,3471
5.27262,3033
5.27833,2655
5.28405,3999
5.28978,3302
5.2955,2795
5.30122,2660
5.30693,2919
5.31267,2845
5.31838,2670
5.3241,1894
5.32983,1928
5.33555,2052
5.34127,2101
5.347,1888
5.35272,1767
5.35843,2497
5.36417,2442
5.36988,2765
5.3756,3151
5.38133,2308
5.38705,2696
5.39277,1929
5.3985,2294
5.40422,2632
5.40993,1990
5.41567,1966
5.42138,2672
5.4271,2507
5.43283,2567
5.43855,1857
5.44427,2849
5.45,1516
5.45572,1431
5.46143,2319
5.46715,2310
5.47288,2355
5.4786,2054
5.48432,1644
5.49005,1359
5.49577,1546
5.50148,1193
5.50722,1255
5.51293,1492
5.51865,1270
5.52438,1446
5.5301,1505
5.53582,1168
5.54155,1765
5.54727,1256
5.55298,1654
5.55872,1565
5.56443,1350
5.57015,1544
5.57588,2681
5.5816,3577
5.58732,6321
5.59305,8381
5.59877,8729
5.60448,8568
5.61022,7886
5.61593,5606
5.62165,4301
5.62738,3613
5.6331,2432
5.63882,2517
5.64453,2090
5.65027,1606
5.65598,2078
5.6617,1246
5.66743,1335
5.67315,1534
5.67887,1661
5.6846,1474
5.69032,1497
5.69603,1523
5.70177,1564
5.70748,1414
5.7132,1466
5.71893,1108
5.72465,1056
5.73037,1423
5.7361,1644
5.74182,1469
5.74753,1353
5.75327,1371
5.75898,1458
5.7647,1475
5.77043,1246
5.77615,1250
5.78187,1277
5.7876,1448
5.79332,1227
5.79903,1632
5.80477,1401
5.81048,1191
5.8162,1490
5.82192,1316
5.82765,1541
5.83337,1575
5.83908,1364
5.84482,1305
5.85053,1504
5.85625,985
5.86198,1461
5.8677,1381
5.87342,1334
5.87915,1419
5.88487,1198
5.89058,1456
5.89632,1652
5.90203,1557
5.90775,1248
5.91348,1440
5.9192,1339
5.92492,1354
5.93065,1516
5.93637,1219
5.94208,1458
5.94782,1857
5.95353,1630
5.95925,1590
5.96498,1628
5.9707,2185
5.97642,1944
5.98213,2065
5.98787,2228
5.99358,2371
5.9993,2903
6.00503,2089
6.01075,2413
6.01647,1759
6.0222,2208
6.02792,2029
6.03363,1804
6.03937,1876
6.04508,2113
6.0508,1992
6.05653,1393
6.06225,1755
6.06797,1810
6.0737,1843
6.07942,1715
6.08513,2278
6.09087,2057
6.09658,2230
6.1023,1901
6.10803,1720
6.11375,1295
6.11947,1388
6.1252,1569
6.13092,1963
6.13663,2079
6.14237,1130
6.14808,2129
6.1538,1953
6.15952,1281
6.16525,2079
6.17097,1440
6.17668,991
6.18242,978
6.18813,1196
6.19385,1339
6.19958,1207
6.2053,1162
6.21102,1039
6.21675,1217
6.22247,1301
6.22818,1319
6.23392,966
6.23963,1789
6.24535,984
6.25108,1287
6.2568,2225
6.26252,2577
6.26825,2256
6.27397,3370
6.27968,2722
6.28542,2865
6.29113,2614
6.29685,2180
6.30258,1944
6.3083,1636
6.31402,1802
6.31975,2069
6.32547,1239
6.33118,1560
6.3369,1848
6.34263,2725
6.34835,3987
6.35407,5081
6.3598,6398
6.36552,5169
6.37123,5737
6.37697,4171
6.38268,2995
6.3884,3284
6.39413,2961
6.39985,2507
6.40557,2194
6.4113,2191
6.41702,1058
6.42273,1257
6.42847,1389
6.43418,920
6.4399,1230
6.44563,1131
6.45135,690
6.45707,1553
6.4628,1083
6.46852,1617
6.47423,1095
6.47997,1583
6.48568,1380
6.4914,790
6.49712,958
6.50285,1222
6.50857,939
6.51428,872
6.52002,1410
6.52573,1165
6.53145,671
6.53718,1023
6.5429,719
6.54862,1053
6.55435,1058
6.56007,1255
6.56578,1247
6.57152,1545
6.57723,1028
6.58295,1395
6.58868,992
6.5944,1053
6.60012,1304
6.60585,1132
6.61157,928
6.61728,846
6.62302,966
6.62873,1345
6.63445,768
6.64018,1098
6.6459,1075
6.65162,1241
6.65735,1280
6.66307,1607
6.66878,1774
6.6745,1403
6.68023,1658
6.68595,1584
6.69167,2177
6.6974,1783
6.70312,1174
6.70883,1685
6.71457,1708
6.72028,1260
6.726,2078
6.73173,1306
6.73745,749
6.74317,1195
6.7489,1421
6.75462,1457
6.76033,1927
6.76607,1515
6.77178,1947
6.7775,2093
6.78323,2047
6.78895,1871
6.79467,2277
6.8004,1919
6.80612,1410
6.81183,1843
6.81757,1091
6.82328,949
6.829,916
6.83473,1241
6.84045,908
6.84617,1337
6.85188,1028
6.85762,935
6.86333,1290
6.86905,1195
6.87478,991
6.8805,1704
6.88622,1779
6.89195,1425
6.89767,1605
6.90338,1548
6.90912,1411
6.91483,1690
6.92055,1335
6.92628,1132
6.932,1503
6.93772,1629
6.94345,1339
6.94917,1263
6.95488,1074
6.96062,1736
6.96633,2024
6.97205,1552
6.97778,1768
6.9835,1890
6.98922,1824
6.99495,2068
7.00067,2225
7.00638,2054
7.01212,1087
7.01783,776
7.02355,1327
7.02927,1473
7.035,1305
7.04072,1472
7.04643,1544
7.05217,1035
7.05788,1381
7.0636,942
7.06933,1323
7.07505,1263
7.08077,1485
7.0865,903
7.09222,367
7.09793,703
7.10367,885
7.10938,511
7.1151,1102
7.12083,611
7.12655,967
7.13227,903
7.138,497
7.14372,836
7.14943,804
7.15517,842
7.16088,888
7.1666,647
7.17233,881
7.17805,908
7.18377,506
7.18948,764
7.19522,645
7.20093,732
7.20665,619
7.21238,1183
7.2181,685
7.22382,865
7.22955,704
7.23527,928
7.24098,959
7.24672,722
7.25243,964
7.25815,561
7.26388,904
7.2696,1019
7.27532,580
7.28105,975
7.28677,674
7.29248,958
7.29822,667
7.30393,918
7.30965,798
7.31538,982
7.3211,778
7.32682,918
7.33255,676
7.33827,639
7.34398,1041
7.34972,737
7.35543,375
7.36115,803
7.36687,796
7.3726,836
7.37832,721
7.38403,588
7.38977,523
7.39548,799
7.4012,787
7.40693,804
7.41265,1070
7.41837,822
7.4241,688
7.42982,892
7.43553,697
7.44127,509
7.44698,1112
7.4527,844
7.45843,497
7.46415,972
7.46987,625
7.4756,1095
7.48132,733
7.48703,563
7.49277,660
7.49848,815
7.5042,649
7.50993,719
7.51565,726
7.52137,669
7.52708,537
7.53282,510
7.53853,530
7.54425,574
7.54998,736
7.5557,740
7.56142,907
7.56715,757
7.57287,672
7.57858,1062
7.58432,831
7.59003,742
7.59575,771
7.60148,678
7.6072,789
7.61292,629
7.61865,751
7.62437,619
7.63008,952
7.63582,1043
7.64153,1821
7.64725,2966
7.65298,3280
7.6587,6049
7.66442,7267
7.67015,6869
7.67587,6858
7.68158,5528
7.68732,4224
7.69303,3151
7.69875,2560
7.70447,1183
7.7102,1273
7.71592,1132
7.72163,658
7.72737,924
7.73308,954
7.7388,655
7.74453,961
7.75025,746
7.75597,763
7.7617,669
7.76742,833
7.77313,590
7.77887,892
7.78458,542
7.7903,731
7.79603,1103
7.80175,583
7.80747,782
7.8132,622
7.81892,1058
7.82463,531
7.83037,788
7.83608,764
7.8418,688
7.84753,552
7.85325,589
7.85897,863
7.8647,835
7.87042,893
7.87613,473
7.88185,858
7.88758,792
7.8933,697
7.89902,925
7.90475,677
7.91047,702
7.91618,538
7.92192,491
7.92763,814
7.93335,875
7.93908,1181
7.9448,527
7.95052,828
7.95625,1023
7.96197,805
7.96768,1075
7.97342,872
7.97913,802
7.98485,1020
7.99058,412
7.9963,723
8.00202,704
8.00775,533
8.01347,734
8.01918,1310
8.02492,1584
8.03063,2719
8.03635,2576
8.04208,4065
8.0478,4773
8.05352,5338
8.05923,4305
8.06497,2711
8.07068,2321
8.0764,1419
8.08213,1471
8.08785,753
8.09357,899
8.0993,582
8.10502,765
8.11073,559
8.11647,571
8.12218,908
8.1279,643
8.13363,648
8.13935,779
8.14507,690
8.1508,964
8.15652,624
8.16223,736
8.16797,705
8.17368,896
8.1794,501
8.18513,590
8.19085,866
8.19657,571
8.2023,456
8.20802,345
8.21373,897
8.21947,832
8.22518,610
8.2309,546
8.23662,1033
8.24235,740
8.24807,719
8.25378,674
8.25952,554
8.26523,743
8.27095,578
8.27668,908
8.2824,779
8.28812,557
8.29385,1069
8.29957,638
8.30528,733
8.31102,1127
8.31673,574
8.32245,522
8.32818,696
8.3339,828
8.33962,783
8.34535,519
8.35107,592
8.35678,506
8.36252,780
8.36823,640
8.37395,412
8.37968,870
8.3854,878
8.39112,642
8.39683,647
8.40257,500
8.40828,289
8.414,470
8.41973,624
8.42545,843
8.43117,678
8.4369,460
8.44262,664
8.44833,585
8.45407,1004
8.45978,712
8.4655,732
8.47123,616
8.47695,971
8.48267,1345
8.4884,1509
8.49412,2967
8.49983,3578
8.50557,3129
8.51128,3588
8.517,2952
8.52273,2944
8.52845,2520
8.53417,1383
8.5399,642
8.54562,640
8.55133,629
8.55707,644
8.56278,481
8.5685,327
8.57422,736
8.57995,770
8.58567,787
8.59138,435
8.59712,670
8.60283,559
8.60855,634
8.61428,354
8.62,732
8.62572,663
8.63145,683
8.63717,1416
8.64288,3890
8.64862,12144
8.65433,32444
8.66005,70106
8.66578,138643
8.6715,219443
8.67722,292584
8.68295,346041
8.68867,357746
8.69438,330595
8.70012,279082
8.70583,206037
8.71155,148896
8.71728,99380
8.723,64533
8.72872,41556
8.73443,26334
8.74017,15827
8.74588,9991
8.7516,5685
8.75733,3566
8.76305,2406
8.76877,1672
8.7745,741
8.78022,730
8.78593,646
8.79167,733
8.79738,809
8.8031,460
8.80883,592
8.81455,495
8.82027,266
8.826,360
8.83172,381
8.83743,698
8.84317,491
8.84888,512
8.8546,734
8.86033,658
8.86605,450
8.87177,443
8.8775,546
8.88322,658
8.88893,432
8.89467,391
8.90038,1003
8.9061,437
8.91182,676
8.91755,549
8.92327,705
8.92898,517
8.93472,189
8.94043,584
8.94615,559
8.95188,515
8.9576,332
8.96332,439
8.96905,745
8.97477,252
8.98048,536
8.98622,376
8.99193,442
8.99765,705
9.00338,606
9.0091,666
9.01482,614
9.02055,224
9.02627,541
9.03198,355
9.03772,554
9.04343,657
9.04915,659
9.05488,412
9.0606,489
9.06632,654
9.07205,477
9.07777,474
9.08348,277
9.0892,759
9.09493,785
9.10065,516
9.10637,643
9.1121,365
9.11782,718
9.12353,780
9.12927,1277
9.13498,1744
9.1407,2439
9.14643,2990
9.15215,2541
9.15787,2201
9.1636,2334
9.16932,1281
9.17503,1742
9.18077,565
9.18648,481
9.1922,654
9.19793,1064
9.20365,450
9.20937,494
9.2151,445
9.22082,220
9.22653,466
9.23227,472
9.23798,613
9.2437,432
9.24943,594
9.25515,486
9.26087,578
9.26658,852
9.27232,311
9.27803,570
9.28375,431
9.28948,298
9.2952,514
9.30092,720
9.30665,457
9.31237,468
9.31808,562
9.32382,722
9.32953,685
9.33525,805
9.34098,461
9.3467,391
9.35242,573
9.35815,614
9.36387,624
9.36958,638
9.37532,316
9.38103,262
9.38675,594
9.39248,501
9.3982,665
9.40392,479
9.40965,242
9.41537,609
9.42108,500
9.4268,573
9.43253,606
9.43825,619
9.44397,193
9.4497,449
9.45542,513
9.46113,572
9.46687,845
9.47258,493
9.4783,260
9.48403,426
9.48975,375
9.49547,463
9.5012,497
9.50692,1570
9.51263,3492
9.51837,7349
9.52408,12832
9.5298,18404
9.53553,22318
9.54125,24216
9.54697,21758
9.5527,17365
9.55842,15064
9.56413,10298
9.56987,6843
9.57558,5112
9.5813,3983
9.58703,2258
9.59275,2136
9.59847,1299
9.60418,1693
9.60992,668
9.61563,854
9.62135,421
9.62708,361
9.6328,401
9.63852,424
9.64425,443
9.64997,513
9.65568,832
9.66142,232
9.66713,415
9.67285,823
9.67858,492
9.6843,550
9.69002,875
9.69575,421
9.70147,500
9.70718,666
9.71292,547
9.71863,575
9.72435,561
9.73008,525
9.7358,591
9.74152,325
9.74725,491
9.75297,799
9.75868,163
9.76442,545
9.77013,313
9.77585,718
9.78157,621
9.7873,632
9.79302,513
9.79873,546
9.80447,363
9.81018,431
9.8159,536
9.82163,844
9.82735,428
9.83307,411
9.8388,245
9.84452,324
9.85023,701
9.85597,930
9.86168,1384
9.8674,1888
9.87313,2505
9.87885,2177
9.88457,2279
9.8903,2040
9.89602,1509
9.90173,1244
9.90747,919
9.91318,874
9.9189,471
9.92463,601
9.93035,574
9.93607,182
9.94178,0
9.94752,382
9.95323,304
9.95895,235
9.96468,1261
9.9704,1710
9.97612,2742
9.98185,3429
9.98757,4616
9.99328,4951
9.99902,5211
10.0047,4807
10.0105,7906
10.0162,19143
10.0219,43275
10.0276,98446
10.0334,191589
10.0391,319120
10.0448,452453
10.0505,550218
10.0562,583667
10.062,552456
10.0677,459417
10.0734,342305
10.0791,234597
10.0849,148839
10.0906,90415
10.0963,51318
10.102,28379
10.1077,15275
10.1135,7740
10.1192,4122
10.1249,2655
10.1306,939
10.1363,1018
10.1421,838
10.1478,633
10.1535,459
10.1592,676
10.165,361
10.1707,584
10.1764,215
10.1821,241
10.1878,676
10.1936,454
10.1993,217
10.205,521
10.2107,1538
10.2165,4097
10.2222,8050
10.2279,12686
10.2336,17509
10.2393,18560
10.2451,16490
10.2508,15396
10.2565,11029
10.2622,7002
10.268,4750
10.2737,1971
10.2794,1204
10.2851,1246
10.2908,1150
10.2966,575
10.3023,953
10.308,275
10.3137,666
10.3195,611
10.3252,491
10.3309,320
10.3366,530
10.3423,346
10.3481,277
10.3538,914
10.3595,452
10.3652,719
10.371,368
10.3767,321
10.3824,779
10.3881,609
10.3938,746
10.3996,640
10.4053,709
10.411,756
10.4167,893
10.4225,575
10.4282,989
10.4339,852
10.4396,539
10.4453,444
10.4511,655
10.4568,398
10.4625,755
10.4682,570
10.4739,2569
10.4797,6108
10.4854,9441
10.4911,10485
10.4968,10962
10.5026,8757
10.5083,8502
10.514,5786
10.5197,4944
10.5254,4153
10.5312,3103
10.5369,2691
10.5426,1538
10.5483,1578
10.5541,1108
10.5598,757
10.5655,983
10.5712,784
10.5769,1208
10.5827,1368
10.5884,2372
10.5941,4325
10.5998,5760
10.6056,9044
10.6113,9236
10.617,10099
10.6227,9288
10.6284,7540
10.6342,5640
10.6399,3327
10.6456,1776
10.6513,1400
10.6571,1664
10.6628,669
10.6685,880
10.6742,943
10.6799,1099
10.6857,1159
10.6914,1062
10.6971,860
10.7028,1234
10.7086,387
10.7143,508
10.72,400
10.7257,510
10.7314,450
10.7372,377
10.7429,255
10.7486,655
10.7543,664
10.7601,366
10.7658,478
10.7715,583
10.7772,882
10.7829,453
10.7887,401
10.7944,755
10.8001,793
10.8058,1231
10.8115,772
10.8173,478
10.823,737
10.8287,1133
10.8344,405
10.8402,645
10.8459,563
10.8516,530
10.8573,462
10.863,319
10.8688,419
10.8745,373
10.8802,654
10.8859,810
10.8917,490
10.8974,524
10.9031,1165
10.9088,518
10.9145,354
10.9203,555
10.926,450
10.9317,364
10.9374,203
10.9432,369
10.9489,662
10.9546,751
10.9603,742
10.966,574
10.9718,1159
10.9775,804
10.9832,562
10.9889,1456
10.9947,669
11.0004,1515
11.0061,774
11.0118,1300
11.0175,999
11.0233,970
11.029,1418
11.0347,838
11.0404,699
11.0462,456
11.0519,455
11.0576,772
11.0633,415
11.069,559
11.0748,363
11.0805,419
11.0862,245
11.0919,607
11.0977,747
11.1034,575
11.1091,856
11.1148,402
11.1205,586
11.1263,494
11.132,157
11.1377,436
11.1434,637
11.1491,484
11.1549,390
11.1606,369
11.1663,222
11.172,638
11.1778,681
11.1835,546
11.1892,257
11.1949,377
11.2006,336
11.2064,395
11.2121,264
11.2178,299
11.2235,624
11.2293,588
11.235,262
11.2407,520
11.2464,445
11.2521,378
11.2579,346
11.2636,335
11.2693,573
11.275,963
11.2808,568
11.2865,364
11.2922,396
11.2979,279
11.3036,175
11.3094,0
11.3151,336
11.3208,490
11.3265,452
11.3323,534
11.338,159
11.3437,193
11.3494,154
11.3551,205
11.3609,413
11.3666,876
11.3723,396
11.378,364
11.3838,240
11.3895,780
11.3952,476
11.4009,465
11.4066,323
11.4124,276
11.4181,177
11.4238,353
11.4295,677
11.4353,523
11.441,417
11.4467,215
11.4524,419
11.4581,532
11.4639,331
11.4696,497
11.4753,291
11.481,228
11.4867,414
11.4925,478
11.4982,803
11.5039,462
11.5096,579
11.5154,577
11.5211,197
11.5268,517
11.5325,904
11.5382,762
11.544,219
11.5497,393
11.5554,219
11.5611,411
11.5669,288
11.5726,520
11.5783,828
11.584,385
11.5897,522
11.5955,167
11.6012,203
11.6069,352
11.6126,450
11.6184,485
11.6241,668
11.6298,0
11.6355,554
11.6412,463
11.647,470
11.6527,202
11.6584,204
11.6641,568
11.6699,501
11.6756,227
11.6813,312
11.687,397
11.6927,657
11.6985,416
11.7042,262
11.7099,332
11.7156,0
11.7214,230
11.7271,585
11.7328,985
11.7385,2399
11.7442,4216
11.75,7938
11.7557,11664
11.7614,16302
11.7671,17860
11.7729,18831
11.7786,14433
11.7843,13165
11.79,9593
11.7957,6613
11.8015,4271
11.8072,2996
11.8129,1351
11.8186,1529
11.8244,0
11.8301,847
11.8358,567
11.8415,1648
11.8472,2758
11.853,5619
11.8587,6155
11.8644,6157
11.8701,5851
11.8758,6062
11.8816,4096
11.8873,3536
11.893,2114
11.8987,1052
11.9045,715
11.9102,204
11.9159,374
11.9216,710
11.9273,373
11.9331,963
11.9388,1693
11.9445,1086
11.9502,1658
11.956,1556
11.9617,1330
11.9674,1406
11.9731,778
11.9788,796
11.9846,534
11.9903,508
11.996,433
12.0017,215
12.0075,413
12.0132,316
12.0189,186
12.0246,656
12.0303,507
12.0361,228
12.0418,324
12.0475,695
12.0532,248
12.059,373
12.0647,403
12.0704,541
12.0761,1557
12.0818,4520
12.0876,13287
12.0933,31603
12.099,72303
12.1047,146158
12.1105,244044
12.1162,361771
12.1219,436642
12.1276,463564
12.1333,419743
12.1391,326225
12.1448,212177
12.1505,121766
12.1562,62155
12.162,27937
12.1677,10720
12.1734,4035
12.1791,1827
12.1848,1475
12.1906,0
12.1963,1160
12.202,1440
12.2077,1858
12.2134,3306
12.2192,4398
12.2249,6095
12.2306,9207
12.2363,11807
12.2421,11651
12.2478,10897
12.2535,8230
12.2592,6333
12.2649,4182
12.2707,3065
12.2764,1444
12.2821,522
12.2878,801
12.2936,754
12.2993,367
12.305,476
12.3107,289
12.3164,211
12.3222,219
12.3279,410
12.3336,266
12.3393,270
12.3451,348
12.3508,216
12.3565,330
12.3622,358
12.3679,544
12.3737,490
12.3794,0
12.3851,0
12.3908,161
12.3966,443
12.4023,356
12.408,1614
12.4137,2974
12.4194,6535
12.4252,16657
12.4309,27916
12.4366,43884
12.4423,58512
12.4481,64716
12.4538,61444
12.4595,47868
12.4652,35726
12.4709,22069
12.4767,12893
12.4824,5439
12.4881,2881
12.4938,799
12.4996,800
12.5053,464
12.511,675
12.5167,449
12.5224,163
12.5282,290
12.5339,222
12.5396,337
12.5453,379
12.551,470
12.5568,314
12.5625,229
12.5682,401
12.5739,589
12.5797,933
12.5854,1177
12.5911,485
12.5968,695
12.6025,1075
12.6083,1039
12.614,754
12.6197,398
12.6254,690
12.6312,174
12.6369,527
12.6426,362
12.6483,0
12.654,691
12.6598,215
12.6655,374
12.6712,253
12.6769,398
12.6827,382
12.6884,0
12.6941,402
12.6998,258
12.7055,255
12.7113,359
12.717,190
12.7227,425
12.7284,1311
12.7342,1352
12.7399,1972
12.7456,2089
12.7513,2558
12.757,2037
12.7628,1556
12.7685,1049
12.7742,452
12.7799,210
12.7857,179
12.7914,399
12.7971,196
12.8028,561
12.8085,234
12.8143,195
12.82,299
12.8257,185
12.8314,551
12.8372,242
12.8429,256
12.8486,176
12.8543,279
12.86,455
12.8658,206
12.8715,371
12.8772,257
12.8829,159
12.8886,423
12.8944,413
12.9001,334
12.9058,366
12.9115,159
12.9173,247
12.923,328
12.9287,324
12.9344,243
12.9401,165
12.9459,453
12.9516,0
12.9573,481
12.963,325
12.9688,323
12.9745,517
12.9802,354
12.9859,692
12.9916,0
12.9974,289
13.0031,289
13.0088,199
13.0145,167
13.0203,177
13.026,353
13.0317,354
13.0374,207
13.0431,204
13.0489,151
13.0546,321
13.0603,0
13.066,277
13.0718,192
13.0775,576
13.0832,176
13.0889,195
13.0946,176
13.1004,245
13.1061,320
13.1118,580
13.1175,836
13.1233,868
13.129,1307
13.1347,2539
13.1404,5069
13.1461,8601
13.1519,11023
13.1576,14404
13.1633,15270
13.169,15588
13.1748,12448
13.1805,13827
13.1862,11480
13.1919,9684
13.1976,8455
13.2034,6163
13.2091,3597
13.2148,1430
13.2205,659
13.2262,670
13.232,387
13.2377,190
13.2434,272
13.2491,262
13.2549,346
13.2606,160
13.2663,279
13.272,239
13.2777,329
13.2835,261
13.2892,449
13.2949,452
13.3006,0
13.3064,384
13.3121,242
13.3178,367
13.3235,150
13.3292,213
13.335,177
13.3407,415
13.3464,388
13.3521,356
13.3579,0
13.3636,423
13.3693,260
13.375,619
13.3807,331
13.3865,760
13.3922,957
13.3979,716
13.4036,525
13.4094,398
13.4151,256
13.4208,641
13.4265,175
13.4322,155
13.438,279
13.4437,394
13.4494,414
13.4551,357
13.4609,349
13.4666,159
13.4723,412
13.478,381
13.4837,219
13.4895,266
13.4952,180
13.5009,347
13.5066,199
13.5124,405
13.5181,208
13.5238,154
13.5295,187
13.5352,174
13.541,386
13.5467,219
13.5524,180
13.5581,525
13.5638,350
13.5696,271
13.5753,216
13.581,176
13.5867,0
13.5925,198
13.5982,0
13.6039,270
13.6096,363
13.6153,191
13.6211,0
13.6268,277
13.6325,0
13.6382,366
13.644,343
13.6497,1016
13.6554,1130
13.6611,1592
13.6668,2097
13.6726,2385
13.6783,2598
13.684,5392
13.6897,3995
13.6955,3431
13.7012,3789
13.7069,2835
13.7126,3020
13.7183,3037
13.7241,2772
13.7298,2939
13.7355,2745
13.7412,2442
13.747,2410
13.7527,1321
13.7584,1975
13.7641,1813
13.7698,1275
13.7756,2456
13.7813,1708
13.787,1850
13.7927,1790
13.7985,2043
13.8042,2246
13.8099,1861
13.8156,2284
13.8213,1469
13.8271,1270
13.8328,1405
13.8385,883
13.8442,1212
13.85,800
13.8557,903
13.8614,1614
13.8671,1036
13.8728,1303
13.8786,1387
13.8843,769
13.89,1162
13.8957,632
13.9014,1098
13.9072,777
13.9129,721
13.9186,575
13.9243,656
13.9301,878
13.9358,434
13.9415,525
13.9472,571
13.9529,719
13.9587,453
13.9644,764
13.9701,355
13.9758,878
13.9816,694
13.9873,838
13.993,405
13.9987,441
14.0044,514
14.0102,993
14.0159,2926
14.0216,8826
14.0273,18634
14.0331,33532
14.0388,57486
14.0445,82003
14.0502,98351
14.0559,111943
14.0617,103983
14.0674,86245
14.0731,65095
14.0788,47136
14.0846,30500
14.0903,17513
14.096,8785
14.1017,4431
14.1074,1684
14.1132,1203
14.1189,401
14.1246,455
14.1303,243
14.1361,822
14.1418,885
14.1475,1051
14.1532,1229
14.1589,262
14.1647,1235
14.1704,319
14.1761,157
14.1818,176
14.1876,486
14.1933,339
14.199,474
14.2047,197
14.2104,325
14.2162,342
14.2219,161
14.2276,612
14.2333,641
14.2391,252
14.2448,878
14.2505,500
14.2562,1241
14.2619,2263
14.2677,2724
14.2734,2433
14.2791,1654
14.2848,1071
14.2905,1413
14.2963,881
14.302,432
14.3077,696
14.3134,182
14.3192,0
14.3249,586
14.3306,276
14.3363,354
14.342,323
14.3478,402
14.3535,336
14.3592,390
14.3649,321
14.3707,602
14.3764,1208
14.3821,1747
14.3878,4155
14.3935,9395
14.3993,16715
14.405,23934
14.4107,29543
14.4164,26871
14.4222,26044
14.4279,20056
14.4336,14570
14.4393,9372
14.445,5787
14.4508,3767
14.4565,2562
14.4622,1688
14.4679,1128
14.4737,909
14.4794,718
14.4851,1056
14.4908,701
14.4965,271
14.5023,317
14.508,588
14.5137,1054
14.5194,612
14.5252,714
14.5309,469
14.5366,364
14.5423,429
14.548,665
14.5538,441
14.5595,323
14.5652,409
14.5709,691
14.5767,467
14.5824,662
14.5881,0
14.5938,329
14.5995,222
14.6053,157
14.611,419
14.6167,211
14.6224,341
14.6281,372
14.6339,394
14.6396,450
14.6453,170
14.651,0
14.6568,357
14.6625,154
14.6682,282
14.6739,0
14.6796,797
14.6854,457
14.6911,156
14.6968,156
14.7025,365
14.7083,421
14.714,179
14.7197,0
14.7254,217
14.7311,0
14.7369,774
14.7426,828
14.7483,318
14.754,210
14.7598,315
14.7655,0
14.7712,428
14.7769,0
14.7826,392
14.7884,197
14.7941,0
14.7998,0
14.8055,169
14.8113,315
14.817,329
14.8227,208
14.8284,246
14.8341,591
14.8399,205
14.8456,0
14.8513,320
14.857,0
14.8628,252
14.8685,244
14.8742,163
14.8799,0
14.8856,530
14.8914,384
14.8971,384
14.9028,461
14.9085,167
14.9143,663
14.92,1405
14.9257,5310
14.9314,11456
14.9371,21978
14.9429,37234
14.9486,54005
14.9543,67416
14.96,70580
14.9657,64569
14.9715,48665
14.9772,34828
14.9829,21415
14.9886,9952
14.9944,4643
15.0001,1803
15.0058,219
15.0115,534
15.0172,0
15.023,184
15.0287,332
15.0344,229
15.0401,570
15.0459,307
15.0516,341
15.0573,254
15.063,238
15.0687,151
15.0745,350
15.0802,844
15.0859,248
15.0916,180
15.0974,155
15.1031,538
15.1088,361
15.1145,0
15.1202,433
15.126,150
15.1317,405
15.1374,310
15.1431,199
15.1489,181
15.1546,263
15.1603,0
15.166,0
15.1717,177
15.1775,404
15.1832,392
15.1889,0
15.1946,567
15.2004,203
15.2061,412
15.2118,900
15.2175,768
15.2232,507
15.229,199
15.2347,217
15.2404,218
15.2461,0
15.2519,398
15.2576,174
15.2633,292
15.269,411
15.2747,190
15.2805,0
15.2862,157
15.2919,760
15.2976,1763
15.3033,1680
15.3091,2991
15.3148,3534
15.3205,3959
15.3262,3650
15.332,3335
15.3377,2941
15.3434,1633
15.3491,974
15.3548,443
15.3606,487
15.3663,714
15.372,374
15.3777,171
15.3835,173
15.3892,164
15.3949,273
15.4006,359
15.4063,175
15.4121,0
15.4178,201
15.4235,0
15.4292,544
15.435,348
15.4407,323
15.4464,465
15.4521,427
15.4578,180
15.4636,183
15.4693,351
15.475,389
15.4807,154
15.4865,548
15.4922,233
15.4979,312
15.5036,319
15.5093,295
15.5151,0
15.5208,316
15.5265,252
15.5322,177
15.538,0
15.5437,566
15.5494,400
15.5551,185
15.5608,348
15.5666,1089
15.5723,286
15.578,497
15.5837,163
15.5895,216
15.5952,164
15.6009,485
15.6066,151
15.6123,165
15.6181,275
15.6238,0
15.6295,356
15.6352,364
15.6409,198
15.6467,0
15.6524,158
15.6581,0
15.6638,0
15.6696,0
15.6753,233
15.681,0
15.6867,158
15.6924,549
15.6982,309
15.7039,156
15.7096,245
15.7153,153
15.7211,157
15.7268,0
15.7325,171
15.7382,0
15.7439,165
15.7497,250
15.7554,241
15.7611,0
15.7668,256
15.7726,368
15.7783,351
15.784,299
15.7897,234
15.7954,0
15.8012,870
15.8069,1295
15.8126,2178
15.8183,3310
15.8241,5263
15.8298,10517
15.8355,16571
15.8412,27527
15.8469,40330
15.8527,54276
15.8584,64857
15.8641,63848
15.8698,54216
15.8756,41875
15.8813,29837
15.887,18905
15.8927,8999
15.8984,4595
15.9042,1770
15.9099,558
15.9156,428
15.9213,176
15.9271,194
15.9328,809
15.9385,558
15.9442,965
15.9499,1539
15.9557,590
15.9614,489
15.9671,675
15.9728,291
15.9785,211
15.9843,159
15.99,378
15.9957,0
16.0014,177
16.0071,283
16.0129,177
16.0186,0
16.0243,372
16.03,574
16.0358,924
16.0415,2815
16.0472,4513
16.0529,8696
16.0587,13373
16.0644,18879
16.0701,25292
16.0758,23291
16.0815,22526
16.0873,18732
16.093,11922
16.0987,8803
16.1044,4504
16.1102,2369
16.1159,1295
16.1216,152
16.1273,779
16.133,529
16.1388,626
16.1445,950
16.1502,1401
16.1559,371
16.1617,151
16.1674,327
16.1731,165
16.1788,208
16.1845,416
16.1902,603
16.196,1117
16.2017,1740
16.2074,1324
16.2131,1955
16.2189,1108
16.2246,1339
16.2303,1582
16.236,1181
16.2418,1055
16.2475,928
16.2532,446
16.2589,575
16.2647,383
16.2704,533
16.2761,657
16.2818,1145
16.2875,1053
16.2933,1658
16.299,2954
16.3047,2252
16.3104,1876
16.3161,2117
16.3219,1759
16.3276,1241
16.3333,526
16.339,248
16.3448,387
16.3505,177
16.3562,0
16.3619,683
16.3676,474
16.3734,445
16.3791,151
16.3848,571
16.3905,150
16.3962,439
16.402,616
16.4077,471
16.4134,268
16.4191,183
16.4249,172
16.4306,677
16.4363,0
16.442,681
16.4477,1635
16.4535,1846
16.4592,2029
16.4649,3428
16.4706,2390
16.4764,1858
16.4821,2285
16.4878,4362
16.4935,5753
16.4993,6844
16.505,6956
16.5107,5770
16.5164,4702
16.5221,2438
16.5279,1214
16.5336,936
16.5393,663
16.545,391
16.5508,383
16.5565,507
16.5622,347
16.5679,470
16.5736,818
16.5794,726
16.5851,738
16.5908,683
16.5965,461
16.6023,526
16.608,0
16.6137,0
16.6194,349
16.6251,560
16.6308,478
16.6366,305
16.6423,526
16.648,1387
16.6537,1728
16.6595,2609
16.6652,2949
16.6709,2329
16.6766,1701
16.6824,1373
16.6881,1529
16.6938,1049
16.6995,576
16.7052,0
16.711,151
16.7167,588
16.7224,357
16.7281,0
16.7339,241
16.7396,534
16.7453,869
16.751,386
16.7567,378
16.7625,162
16.7682,186
16.7739,775
16.7796,1042
16.7854,647
16.7911,736
16.7968,354
16.8025,0
16.8082,449
16.814,317
16.8197,468
16.8254,271
16.8311,356
16.8368,192
16.8426,308
16.8483,295
16.854,0
16.8597,0
16.8654,0
16.8712,248
16.8769,591
16.8826,1645
16.8883,1186
16.8941,1118
16.8998,824
16.9055,1321
16.9112,1272
16.917,1007
16.9227,589
16.9284,888
16.9341,689
16.9399,818
16.9456,788
16.9513,1319
16.957,682
16.9627,1289
16.9685,1003
16.9742,1686
16.9799,1238
16.9856,898
16.9914,549
16.9971,1043
17.0028,215
17.0085,345
17.0142,534
17.02,216
17.0257,159
17.0314,0
17.0371,375
17.0428,0
17.0486,1888
17.0543,2188
17.06,2810
17.0657,3962
17.0714,4587
17.0772,5522
17.0829,6455
17.0886,9153
17.0943,10154
17.1001,9417
17.1058,9450
17.1115,7344
17.1172,4461
17.1229,2505
17.1287,1360
17.1344,588
17.1401,402
17.1458,416
17.1516,0
17.1573,178
17.163,177
17.1687,152
17.1745,279
17.1802,592
17.1859,0
17.1916,395
17.1973,422
17.2031,189
17.2088,403
17.2145,175
17.2202,153
17.226,187
17.2317,1352
17.2374,2372
17.2431,2017
17.2488,2402
17.2545,1667
17.2603,808
17.266,436
17.2717,317
17.2775,184
17.2832,154
17.2889,952
17.2946,1850
17.3003,4314
17.3061,6090
17.3118,8842
17.3175,10341
17.3232,10747
17.3289,7826
17.3347,6240
17.3404,3385
17.3461,2808
17.3518,1423
17.3576,339
17.3633,205
17.369,204
17.3747,156
17.3804,240
17.3862,0
17.3919,247
17.3976,324
17.4033,218
17.4091,0
17.4148,0
17.4205,431
17.4262,256
17.4319,186
17.4377,181
17.4434,332
17.4491,0
17.4548,416
17.4606,0
17.4663,176
17.472,226
17.4777,0
17.4834,348
17.4892,258
17.4949,197
17.5006,0
17.5063,182
17.5121,0
17.5178,0
17.5235,376
17.5292,702
17.5349,160
17.5406,0
17.5464,344
17.5521,156
17.5578,183
17.5635,199
17.5693,170
17.575,370
17.5807,469
17.5864,171
17.5922,706
17.5979,563
17.6036,567
17.6093,320
17.6151,818
17.6208,752
17.6265,743
17.6322,568
17.6379,545
17.6437,365
17.6494,545
17.6551,222
17.6608,1148
17.6666,913
17.6723,1404
17.678,679
17.6837,545
17.6894,965
17.6952,442
17.7009,169
17.7066,641
17.7123,197
17.718,274
17.7238,701
17.7295,622
17.7352,1200
17.7409,777
17.7467,788
17.7524,966
17.7581,575
17.7638,679
17.7695,333
17.7753,370
17.781,0
17.7867,505
17.7924,472
17.7982,358
17.8039,321
17.8096,0
17.8153,191
17.821,176
17.8268,205
17.8325,0
17.8382,415
17.8439,195
17.8497,791
17.8554,1409
17.8611,2375
17.8668,5206
17.8725,8766
17.8783,12845
17.884,14405
17.8897,15121
17.8954,15263
17.9012,12727
17.9069,10307
17.9126,10546
17.9183,7986
17.924,7822
17.9298,8291
17.9355,7246
17.9412,6424
17.9469,6001
17.9527,4455
17.9584,3057
17.9641,2575
17.9698,1155
17.9755,1605
17.9812,989
17.987,567
17.9927,496
17.9984,0
18.0041,660
18.0099,499
18.0156,579
18.0213,752
18.027,1480
18.0328,1784
18.0385,2808
18.0442,2365
18.0499,2308
18.0556,2327
18.0614,1439
18.0671,1826
18.0728,938
18.0785,664
18.0843,734
18.09,1401
18.0957,908
18.1014,1185
18.1071,2046
18.1129,1304
18.1186,1602
18.1243,983
18.13,507
18.1358,535
18.1415,591
18.1472,239
18.1529,176
18.1586,541
18.1644,303
18.1701,0
18.1758,159
18.1815,572
18.1873,168
18.193,150
18.1987,0
18.2044,150
18.2101,382
18.2159,363
18.2216,960
18.2273,2910
18.233,6545
18.2388,8827
18.2445,13979
18.2502,19196
18.2559,20826
18.2616,18284
18.2674,15146
18.2731,10779
18.2788,7288
18.2845,4453
18.2903,1115
18.296,842
18.3017,645
18.3074,507
18.3131,151
18.3189,429
18.3246,439
18.3303,505
18.336,711
18.3418,382
18.3475,198
18.3532,399
18.3589,786
18.3646,379
18.3704,644
18.3761,759
18.3818,0
18.3875,318
18.3932,202
18.399,0
18.4047,155
18.4104,0
18.4161,159
18.4218,321
18.4276,232
18.4333,0
18.439,188
18.4447,156
18.4505,445
18.4562,364
18.4619,162
18.4676,153
18.4734,159
18.4791,238
18.4848,200
18.4905,190
18.4962,247
18.502,318
18.5077,163
18.5134,251
18.5191,204
18.5249,323
18.5306,218
18.5363,410
18.542,0
18.5477,160
18.5535,362
18.5592,820
18.5649,856
18.5706,784
18.5764,423
18.5821,162
18.5878,443
18.5935,752
18.5992,2814
18.605,9316
18.6107,17832
18.6164,36621
18.6221,68722
18.6279,105064
18.6336,138708
18.6393,157868
18.645,154862
18.6507,130120
18.6565,92370
18.6622,63030
18.6679,34661
18.6736,19307
18.6793,11752
18.6851,7368
18.6908,6612
18.6965,5568
18.7022,5291
18.708,5191
18.7137,6066
18.7194,5243
18.7251,3949
18.7308,3556
18.7366,2330
18.7423,2278
18.748,1636
18.7537,983
18.7595,814
18.7652,1257
18.7709,1332
18.7766,1173
18.7823,668
18.7881,917
18.7938,1159
18.7995,224
18.8052,714
18.811,1086
18.8167,555
18.8224,1010
18.8281,490
18.8338,154
18.8396,0
18.8453,351
18.851,199
18.8567,695
18.8625,799
18.8682,840
18.8739,459
18.8796,855
18.8853,621
18.8911,349
18.8968,610
18.9025,168
18.9082,639
18.914,769
18.9197,491
18.9254,207
18.9311,355
18.9368,258
18.9426,530
18.9483,686
18.954,241
18.9597,384
18.9655,457
18.9712,0
18.9769,437
18.9826,715
18.9883,1228
18.9941,818
18.9998,929
19.0055,660
19.0112,570
19.017,0
19.0227,163
19.0284,0
19.0341,157
19.0398,618
19.0456,1167
19.0513,3710
19.057,11697
19.0627,28134
19.0684,56097
19.0742,101800
19.0799,163305
19.0856,220958
19.0913,267076
19.097,274228
19.1028,248837
19.1085,207220
19.1142,151324
19.1199,116083
19.1257,97969
19.1314,89096
19.1371,80275
19.1428,73166
19.1486,54672
19.1543,40240
19.16,30656
19.1657,30426
19.1714,42446
19.1772,75472
19.1829,149586
19.1886,270974
19.1943,453208
19.2001,663057
19.2058,898967
19.2115,1098732
19.2172,1207657
19.2229,1218746
19.2287,1076143
19.2344,838038
19.2401,573070
19.2458,320770
19.2516,159813
19.2573,69821
19.263,32269
19.2687,15576
19.2744,11506
19.2802,10810
19.2859,13972
19.2916,16002
19.2973,17349
19.3031,17585
19.3088,15875
19.3145,12853
19.3202,10257
19.3259,6891
19.3317,5141
19.3374,2561
19.3431,1176
19.3488,2456
19.3546,2166
19.3603,2840
19.366,2543
19.3717,3967
19.3774,4938
19.3832,5461
19.3889,6215
19.3946,4596
19.4003,3662
19.406,3264
19.4118,2297
19.4175,1568
19.4232,1034
19.4289,1076
19.4347,413
19.4404,969
19.4461,927
19.4518,705
19.4575,669
19.4633,565
19.469,615
19.4747,569
19.4804,1117
19.4862,693
19.4919,1587
19.4976,2034
19.5033,2567
19.509,3235
19.5148,3232
19.5205,2561
19.5262,2926
19.5319,2422
19.5376,1416
19.5434,1494
19.5491,1092
19.5548,1893
19.5605,2279
19.5663,4268
19.572,4213
19.5777,6027
19.5834,5830
19.5892,5824
19.5949,4632
19.6006,3921
19.6063,2711
19.612,1261
19.6178,806
19.6235,787
19.6292,551
19.6349,643
19.6407,527
19.6464,552
19.6521,187
19.6578,588
19.6635,211
19.6693,539
19.675,330
19.6807,1069
19.6864,1229
19.6922,2048
19.6979,2255
19.7036,2437
19.7093,2470
19.715,2230
19.7208,1574
19.7265,1541
19.7322,1494
19.7379,1193
19.7437,1297
19.7494,917
19.7551,1183
19.7608,1121
19.7665,1323
19.7723,317
19.778,353
19.7837,468
19.7894,453
19.7951,868
19.8009,183
19.8066,165
19.8123,806
19.818,0
19.8238,411
19.8295,151
19.8352,643
19.8409,256
19.8466,654
19.8524,1605
19.8581,525
19.8638,823
19.8695,735
19.8753,882
19.881,486
19.8867,0
19.8924,562
19.8981,1012
19.9039,1643
19.9096,1487
19.9153,2815
19.921,4494
19.9268,6097
19.9325,8318
19.9382,11008
19.9439,12299
19.9496,13238
19.9553,12794
19.9611,10912
19.9668,7755
19.9725,4960
19.9783,3834
19.984,2597
19.9897,1513
19.9954,986
20.0011,1051
20.0069,612
20.0126,761
20.0183,874
20.024,723
20.0298,333
20.0355,637
20.0412,0
20.0469,158
20.0526,177
20.0584,193
20.0641,417
20.0698,497
20.0755,525
20.0813,650
20.087,1501
20.0927,3233
20.0984,4684
20.1041,8089
20.1099,9626
20.1156,13335
20.1213,13472
20.127,12562
20.1327,10447
20.1385,7242
20.1442,5196
20.1499,2806
20.1556,1396
20.1614,1324
20.1671,709
20.1728,961
20.1785,644
20.1842,2339
20.19,2527
20.1957,3237
20.2014,3933
20.2071,4408
20.2129,2816
20.2186,2610
20.2243,2104
20.23,1350
20.2357,714
20.2415,569
20.2472,0
20.2529,863
20.2586,573
20.2644,501
20.2701,510
20.2758,531
20.2815,957
20.2872,720
20.293,329
20.2987,550
20.3044,500
20.3101,657
20.3159,558
20.3216,340
20.3273,241
20.333,196
20.3387,738
20.3445,1153
20.3502,835
20.3559,742
20.3616,1311
20.3674,1054
20.3731,1007
20.3788,809
20.3845,473
20.3902,1506
20.396,1984
20.4017,1634
20.4074,1963
20.4131,2634
20.4189,1868
20.4246,1601
20.4303,1271
20.436,1346
20.4417,537
20.4475,0
20.4532,601
20.4589,533
20.4646,895
20.4703,1066
20.4761,1138
20.4818,2322
20.4875,2468
20.4932,3615
20.499,4067
20.5047,5075
20.5104,7249
20.5161,9238
20.5218,10162
20.5276,15940
20.5333,22939
20.539,44240
20.5447,87065
20.5505,166421
20.5562,305382
20.5619,506779
20.5676,765850
20.5733,1082929
20.5791,1438161
20.5848,1804625
20.5905,2120614
20.5962,2283366
20.602,2232745
20.6077,1801093
20.6134,1143533
20.6191,550659
20.6248,223458
20.6305,76756
20.6363,29148
20.642,15716
20.6477,11608
20.6534,9012
20.6592,7730
20.6649,6395
20.6706,6099
20.6763,5946
20.6821,5533
20.6878,5223
20.6935,5832
20.6992,6604
20.705,5015
20.7107,5170
20.7164,4203
20.7221,4373
20.7278,4099
20.7336,2536
20.7393,3063
20.745,2097
20.7507,2291
20.7565,1599
20.7622,1440
20.7679,1431
20.7736,2735
20.7793,3622
20.7851,4073
20.7908,3610
20.7965,3390
20.8022,3959
20.8079,2699
20.8137,2215
20.8194,1613
20.8251,829
20.8308,885
20.8366,1740
20.8423,666
20.848,914
20.8537,1077
20.8594,711
20.8652,1163
20.8709,1124
20.8766,1868
20.8823,2403
20.8881,2415
20.8938,2674
20.8995,1375
20.9052,1918
20.9109,2025
20.9167,1726
20.9224,1359
20.9281,1800
20.9338,2688
20.9396,5702
20.9453,8263
20.951,13733
20.9567,17001
20.9624,19902
20.9682,23130
20.9739,24439
20.9796,20983
20.9853,18699
20.9911,16499
20.9968,14731
21.0025,16659
21.0082,20016
21.0139,23554
21.0197,29382
21.0254,36849
21.0311,35907
21.0368,32553
21.0426,26838
21.0483,21351
21.054,14410
21.0597,10461
21.0654,7156
21.0711,4630
21.0769,3769
21.0826,2562
21.0883,2145
21.094,1250
21.0998,482
21.1055,1036
21.1112,1305
21.1169,711
21.1227,908
21.1284,622
21.1341,476
21.1398,722
21.1455,414
21.1513,1318
21.157,835
21.1627,1344
21.1684,728
21.1742,797
21.1799,990
21.1856,781
21.1913,944
21.197,376
21.2028,579
21.2085,519
21.2142,1118
21.2199,1167
21.2257,667
21.2314,158
21.2371,360
21.2428,781
21.2485,178
21.2543,561
21.26,377
21.2657,427
21.2714,199
21.2772,1078
21.2829,382
21.2886,865
21.2943,1560
21.3,2450
21.3058,1863
21.3115,2538
21.3172,3939
21.3229,5219
21.3287,5930
21.3344,7334
21.3401,7140
21.3458,9125
21.3515,8647
21.3573,8324
21.363,5743
21.3687,4228
21.3744,2383
21.3802,2260
21.3859,1044
21.3916,1400
21.3973,1357
21.403,571
21.4088,1134
21.4145,582
21.4202,522
21.4259,1543
21.4317,870
21.4374,1281
21.4431,976
21.4488,1844
21.4545,2561
21.4603,3508
21.466,4216
21.4717,4729
21.4774,5255
21.4831,4165
21.4889,2660
21.4946,2415
21.5003,2240
21.506,681
21.5117,1377
21.5175,848
21.5232,1120
21.5289,638
21.5346,749
21.5404,746
21.5461,1035
21.5518,688
21.5575,1553
21.5633,1896
21.569,949
21.5747,2428
21.5804,1700
21.5861,1782
21.5919,1389
21.5976,2256
21.6033,997
21.609,1117
21.6148,941
21.6205,492
21.6262,655
21.6319,191
21.6376,408
21.6434,550
21.6491,527
21.6548,802
21.6605,695
21.6663,154
21.672,155
21.6777,178
21.6834,862
21.6891,957
21.6949,1595
21.7006,1723
21.7063,1461
21.712,1309
21.7178,796
21.7235,981
21.7292,445
21.7349,719
21.7406,1284
21.7464,1283
21.7521,193
21.7578,382
21.7635,176
21.7693,506
21.775,907
21.7807,1317
21.7864,361
21.7921,571
21.7979,431
21.8036,346
21.8093,531
21.815,746
21.8207,558
21.8265,468
21.8322,1082
21.8379,203
21.8436,574
21.8494,1160
21.8551,714
21.8608,2989
21.8665,4773
21.8722,5755
21.878,8939
21.8837,10577
21.8894,9497
21.8951,10205
21.9009,9003
21.9066,6973
21.9123,5677
21.918,4423
21.9237,3606
21.9295,2940
21.9352,1729
21.9409,1170
21.9466,1105
21.9524,733
21.9581,1149
21.9638,416
21.9695,1414
21.9752,616
21.981,1240
21.9867,775
21.9924,672
21.9981,1154
22.0039,985
22.0096,1184
22.0153,966
22.021,1460
22.0267,1158
22.0325,1183
22.0382,1196
22.0439,1259
22.0496,2117
22.0554,2644
22.0611,2068
22.0668,2303
22.0725,2835
22.0782,2671
22.084,1106
22.0897,1306
22.0954,1259
22.1011,1206
22.1069,1412
22.1126,752
22.1183,929
22.124,1065
22.1297,731
22.1355,993
22.1412,1258
22.1469,806
22.1526,1077
22.1584,1410
22.1641,2131
22.1698,1431
22.1755,1546
22.1812,1050
22.187,981
22.1927,654
22.1984,698
22.2041,999
22.2098,1574
22.2156,1888
22.2213,1466
22.227,1844
22.2327,1707
22.2385,1985
22.2442,2576
22.2499,2086
22.2556,2449
22.2613,1744
22.2671,1007
22.2728,895
22.2785,693
22.2842,200
22.29,944
22.2957,1081
22.3014,2755
22.3071,3797
22.3128,4924
22.3186,4534
22.3243,5863
22.33,5227
22.3357,4085
22.3415,2070
22.3472,1715
22.3529,1429
22.3586,631
22.3643,893
22.3701,639
22.3758,677
22.3815,577
22.3872,1327
22.393,3826
22.3987,4663
22.4044,9923
22.4101,14014
22.4158,22146
22.4216,27762
22.4273,33753
22.433,32433
22.4387,28494
22.4445,24883
22.4502,16786
22.4559,11542
22.4616,5424
22.4673,3909
22.4731,2168
22.4788,939
22.4845,691
22.4902,818
22.496,1312
22.5017,2228
22.5074,2243
22.5131,2812
22.5188,3357
22.5246,3556
22.5303,2844
22.536,3381
22.5417,2434
22.5474,2063
22.5532,1062
22.5589,1875
22.5646,867
22.5703,906
22.5761,1400
22.5818,868
22.5875,1708
22.5932,591
22.5989,820
22.6047,1380
22.6104,855
22.6161,765
22.6218,893
22.6275,793
22.6333,961
22.639,401
22.6447,868
22.6504,410
22.6562,812
22.6619,1185
22.6676,981
22.6733,938
22.6791,516
22.6848,1220
22.6905,1260
22.6962,1043
22.7019,676
22.7077,1963
22.7134,1721
22.7191,995
22.7248,1267
22.7306,918
22.7363,630
22.742,825
22.7477,872
22.7534,554
22.7592,1524
22.7649,3280
22.7706,3537
22.7763,5300
22.7821,4904
22.7878,5720
22.7935,6673
22.7992,5142
22.8049,4607
22.8107,5297
22.8164,4337
22.8221,4040
22.8278,2103
22.8336,1957
22.8393,1049
22.845,516
22.8507,1240
22.8564,1768
22.8622,748
22.8679,1257
22.8736,2373
22.8793,3068
22.885,4859
22.8908,5314
22.8965,3967
22.9022,3422
22.9079,3288
22.9137,1706
22.9194,1579
22.9251,1237
22.9308,1100
22.9365,517
22.9423,792
22.948,627
22.9537,591
22.9594,625
22.9652,752
22.9709,847
22.9766,487
22.9823,503
22.988,345
22.9938,761
22.9995,805
23.0052,673
23.0109,722
23.0167,1107
23.0224,686
23.0281,1172
23.0338,2065
23.0395,1373
23.0452,1369
23.051,1633
23.0567,2359
23.0624,1943
23.0682,927
23.0739,2106
23.0796,1217
23.0853,1514
23.091,1865
23.0968,1934
23.1025,1912
23.1082,1788
23.1139,694
23.1197,1817
23.1254,1676
23.1311,1307
23.1368,847
23.1425,1027
23.1483,1334
23.154,1100
23.1597,592
23.1654,944
23.1712,1160
23.1769,877
23.1826,1283
23.1883,794
23.194,1992
23.1998,4071
23.2055,8141
23.2112,14693
23.2169,22760
23.2226,33424
23.2284,43364
23.2341,49408
23.2398,50358
23.2455,45015
23.2513,37367
23.257,28640
23.2627,21555
23.2684,15926
23.2741,13284
23.2799,11879
23.2856,10513
23.2913,9752
23.297,8128
23.3028,6666
23.3085,4479
23.3142,3313
23.3199,2088
23.3256,1866
23.3314,973
23.3371,571
23.3428,1706
23.3485,1379
23.3543,1124
23.36,1147
23.3657,1627
23.3714,1242
23.3771,1000
23.3829,966
23.3886,1407
23.3943,833
23.4,814
23.4058,804
23.4115,840
23.4172,601
23.4229,484
23.4286,1022
23.4344,1661
23.4401,715
23.4458,996
23.4515,1605
23.4573,1726
23.463,1426
23.4687,1583
23.4744,1615
23.4801,1000
23.4859,1113
23.4916,1162
23.4973,806
23.503,610
23.5088,637
23.5145,1341
23.5202,886
23.5259,834
23.5316,431
23.5374,1027
23.5431,2106
23.5488,2006
23.5545,1466
23.5602,996
23.566,1306
23.5717,1304
23.5774,893
23.5831,1672
23.5889,3680
23.5946,5635
23.6003,8459
23.606,14327
23.6117,18055
23.6175,23916
23.6232,25891
23.6289,26393
23.6346,24521
23.6404,18384
23.6461,16101
23.6518,10124
23.6575,8845
23.6632,6419
23.669,4855
23.6747,4742
23.6804,3431
23.6861,2238
23.6919,822
23.6976,1171
23.7033,1110
23.709,525
23.7147,770
23.7205,953
23.7262,1087
23.7319,1009
23.7376,862
23.7434,792
23.7491,968
23.7548,1017
23.7605,925
23.7662,830
23.772,1122
23.7777,1315
23.7834,1355
23.7891,878
23.7949,1125
23.8006,767
23.8063,474
23.812,1957
23.8177,1479
23.8235,517
23.8292,551
23.8349,608
23.8406,2250
23.8464,1523
23.8521,1721
23.8578,1874
23.8635,1529
23.8692,734
23.875,1480
23.8807,996
23.8864,1483
23.8921,1276
23.8978,967
23.9036,2623
23.9093,2652
23.915,4561
23.9207,5614
23.9265,9053
23.9322,9725
23.9379,11236
23.9436,10612
23.9493,7267
23.9551,6666
23.9608,5068
23.9665,3845
23.9722,2885
23.978,3191
23.9837,3737
23.9894,6419
23.9951,8846
24.0008,11817
24.0066,16008
24.0123,19926
24.018,20654
24.0237,21937
24.0295,22399
24.0352,20571
24.0409,24726
24.0466,27737
24.0523,31542
24.0581,31228
24.0638,31953
24.0695,26965
24.0752,21437
24.081,14013
24.0867,9413
24.0924,6552
24.0981,5765
24.1038,6042
24.1096,8529
24.1153,8760
24.121,9466
24.1267,9999
24.1325,9893
24.1382,8568
24.1439,7663
24.1496,7153
24.1553,5883
24.161,5862
24.1668,4830
24.1725,3722
24.1782,3247
24.1839,3423
24.1897,2086
24.1954,2800
24.2011,2228
24.2068,2782
24.2126,2001
24.2183,1477
24.224,2202
24.2297,1798
24.2354,2130
24.2412,2663
24.2469,4770
24.2526,5704
24.2583,9541
24.2641,11247
24.2698,12586
24.2755,13039
24.2812,12864
24.2869,12356
24.2927,13611
24.2984,13052
24.3041,14340
24.3098,12325
24.3156,10302
24.3213,11020
24.327,8975
24.3327,7580
24.3384,8270
24.3442,6675
24.3499,7334
24.3556,6217
24.3613,4639
24.3671,4299
24.3728,4023
24.3785,3315
24.3842,3168
24.3899,3521
24.3957,4170
24.4014,3661
24.4071,4471
24.4128,4725
24.4186,7115
24.4243,8336
24.43,14170
24.4357,23152
24.4414,39176
24.4472,57773
24.4529,78149
24.4586,90131
24.4643,98156
24.4701,89947
24.4758,77703
24.4815,60234
24.4872,43337
24.4929,30630
24.4987,20907
24.5044,16255
24.5101,11069
24.5158,7838
24.5216,6763
24.5273,5904
24.533,5855
24.5387,5835
24.5444,5830
24.5502,5842
24.5559,6027
24.5616,7512
24.5673,8044
24.573,6603
24.5788,7620
24.5845,6304
24.5902,5489
24.5959,4704
24.6017,3689
24.6074,3869
24.6131,4346
24.6188,5259
24.6245,5438
24.6303,5980
24.636,7004
24.6417,7314
24.6474,6084
24.6532,5160
24.6589,5661
24.6646,5166
24.6703,4155
24.676,4198
24.6818,3434
24.6875,4102
24.6932,5139
24.6989,6224
24.7047,8019
24.7104,8255
24.7161,10267
24.7218,9438
24.7275,7813
24.7333,6531
24.739,5168
24.7447,4596
24.7504,4020
24.7562,5259
24.7619,7789
24.7676,9725
24.7733,14058
24.779,20394
24.7848,21382
24.7905,24248
24.7962,23413
24.8019,18813
24.8077,15773
24.8134,11916
24.8191,7456
24.8248,5318
24.8305,2703
24.8363,2191
24.842,2893
24.8477,1608
24.8534,2280
24.8592,2148
24.8649,2385
24.8706,2221
24.8763,3435
24.882,3228
24.8878,4821
24.8935,4986
24.8992,4793
24.9049,3277
24.9106,4084
24.9164,3050
24.9221,2301
24.9278,1993
24.9335,1459
24.9393,2090
24.945,1765
24.9507,980
24.9564,840
24.9621,1213
24.9679,1118
24.9736,1670
24.9793,719
24.985,1149
24.9908,1063
24.9965,1336
25.0022,1871
25.0079,2760
25.0136,3589
25.0194,4553
25.0251,3658
25.0308,4495
25.0365,3271
25.0423,2758
25.048,2354
25.0537,2258
25.0594,3467
25.0651,6455
25.0709,11926
25.0766,20646
25.0823,31205
25.088,45784
25.0938,54352
25.0995,59905
25.1052,57713
25.1109,49464
25.1166,37629
25.1224,27230
25.1281,16263
25.1338,8483
25.1395,5186
25.1453,2221
25.151,1629
25.1567,1335
25.1624,1175
25.1681,1926
25.1739,1764
25.1796,2709
25.1853,3025
25.191,2954
25.1968,3459
25.2025,2565
25.2082,3544
25.2139,4627
25.2196,4258
25.2254,4423
25.2311,5192
25.2368,4422
25.2425,6209
25.2483,7081
25.254,9982
25.2597,10933
25.2654,14181
25.2711,17518
25.2769,18799
25.2826,19872
25.2883,18857
25.294,17916
25.2997,13651
25.3055,11201
25.3112,9950
25.3169,6679
25.3226,5195
25.3284,5683
25.3341,3749
25.3398,4071
25.3455,2007
25.3512,2686
25.357,2071
25.3627,1011
25.3684,1392
25.3741,1236
25.3799,780
25.3856,1085
25.3913,909
25.397,1251
25.4027,1487
25.4085,1867
25.4142,1497
25.4199,1693
25.4256,2264
25.4314,2770
25.4371,2955
25.4428,4601
25.4485,4261
25.4542,3706
25.46,4470
25.4657,3115
25.4714,2873
25.4771,2055
25.4829,1927
25.4886,1971
25.4943,2129
25.5,1804
25.5057,2436
25.5115,2445
25.5172,2774
25.5229,2787
25.5286,1951
25.5344,2507
25.5401,2335
25.5458,2282
25.5515,2218
25.5572,2084
25.563,2527
25.5687,2541
25.5744,2630
25.5801,3626
25.5859,3639
25.5916,3867
25.5973,4278
25.603,5414
25.6087,5153
25.6145,4945
25.6202,5122
25.6259,5791
25.6316,5510
25.6373,6655
25.6431,8203
25.6488,14251
25.6545,21276
25.6602,31167
25.666,40769
25.6717,46779
25.6774,51932
25.6831,47372
25.6888,41564
25.6946,28895
25.7003,18932
25.706,13053
25.7117,7155
25.7174,4540
25.7232,2716
25.7289,3083
25.7346,2147
25.7403,1789
25.7461,1299
25.7518,1480
25.7575,1958
25.7632,951
25.769,1537
25.7747,906
25.7804,1444
25.7861,1410
25.7918,2313
25.7976,1745
25.8033,2382
25.809,2861
25.8147,1807
25.8205,2166
25.8262,2458
25.8319,3257
25.8376,2843
25.8433,3442
25.8491,3719
25.8548,3909
25.8605,4142
25.8662,4369
25.872,3799
25.8777,2534
25.8834,4138
25.8891,4858
25.8948,3299
25.9006,4725
25.9063,4227
25.912,2626
25.9177,2508
25.9235,1972
25.9292,1343
25.9349,1142
25.9406,702
25.9463,1070
25.9521,856
25.9578,1200
25.9635,474
25.9692,1190
25.9749,675
25.9807,539
25.9864,1207
25.9921,1502
25.9978,1808
26.0036,1607
26.0093,2243
26.015,4330
26.0207,4744
26.0264,6240
26.0322,6163
26.0379,7189
26.0436,5446
26.0493,4782
26.0551,4246
26.0608,2798
26.0665,1969
26.0722,1675
26.0779,1457
26.0837,1415
26.0894,1922
26.0951,2078
26.1008,1912
26.1066,2227
26.1123,2184
26.118,3008
26.1237,2040
26.1294,2124
26.1352,1501
26.1409,1507
26.1466,1205
26.1523,1474
26.1581,1655
26.1638,2088
26.1695,1221
26.1752,1760
26.1809,2141
26.1867,1878
26.1924,1385
26.1981,2724
26.2038,2861
26.2096,2174
26.2153,2891
26.221,3228
26.2267,2948
26.2324,2225
26.2382,2141
26.2439,1077
26.2496,1516
26.2553,1275
26.2611,918
26.2668,1474
26.2725,1310
26.2782,1480
26.2839,1401
26.2897,2198
26.2954,4543
26.3011,8351
26.3068,19846
26.3125,46062
26.3183,94246
26.324,181252
26.3297,342025
26.3354,553329
26.3412,796708
26.3469,1099273
26.3526,1451035
26.3583,1712997
26.364,1926391
26.3698,1951270
26.3755,1773313
26.3812,1379633
26.3869,894014
26.3927,456683
26.3984,196619
26.4041,83198
26.4098,36741
26.4155,20901
26.4213,14030
26.427,11966
26.4327,10658
26.4384,9082
26.4442,8395
26.4499,6534
26.4556,6657
26.4613,6876
26.467,8030
26.4728,5578
26.4785,6285
26.4842,6648
26.4899,5736
26.4957,5026
26.5014,6201
26.5071,4953
26.5128,4660
26.5185,4994
26.5243,6054
26.53,3768
26.5357,3540
26.5414,4143
26.5472,4049
26.5529,3117
26.5586,3885
26.5643,3305
26.57,3384
26.5758,3899
26.5815,3211
26.5872,3224
26.5929,3886
26.5987,3297
26.6044,4090
26.6101,4271
26.6158,6933
26.6215,14301
26.6273,30637
26.633,60444
26.6387,113233
26.6444,195025
26.6501,304445
26.6559,428213
26.6616,535257
26.6673,592775
26.673,581479
26.6788,497714
26.6845,371046
26.6902,236438
26.6959,138416
26.7016,74614
26.7074,35190
26.7131,20767
26.7188,10857
26.7245,9186
26.7303,6559
26.736,6699
26.7417,5693
26.7474,6127
26.7531,5561
26.7589,5486
26.7646,7694
26.7703,7453
26.776,8304
26.7818,8046
26.7875,7780
26.7932,6588
26.7989,5360
26.8046,5659
26.8104,6017
26.8161,4926
26.8218,4800
26.8275,4738
26.8333,5138
26.839,5086
26.8447,5183
26.8504,6343
26.8561,8105
26.8619,10661
26.8676,10403
26.8733,14666
26.879,16294
26.8848,16191
26.8905,14103
26.8962,11715
26.9019,10574
26.9076,7467
26.9134,6624
26.9191,6045
26.9248,5097
26.9305,4384
26.9363,4427
26.942,1808
26.9477,2569
26.9534,3416
26.9591,2434
26.9649,2502
26.9706,2303
26.9763,3214
26.982,2514
26.9877,2947
26.9935,2163
26.9992,2825
27.0049,2700
27.0106,2419
27.0164,3720
27.0221,4702
27.0278,5697
27.0335,6954
27.0392,7715
27.045,6565
27.0507,8316
27.0564,4879
27.0621,4388
27.0679,3932
27.0736,2404
27.0793,2226
27.085,1809
27.0907,1830
27.0965,2265
27.1022,2463
27.1079,1802
27.1136,1672
27.1194,1791
27.1251,1942
27.1308,1979
27.1365,966
27.1422,1861
27.148,3061
27.1537,2731
27.1594,2343
27.1651,3397
27.1709,6124
27.1766,9033
27.1823,11361
27.188,11605
27.1937,12985
27.1995,13522
27.2052,15586
27.2109,12213
27.2166,12881
27.2224,9834
27.2281,9446
27.2338,6582
27.2395,5907
27.2452,6000
27.251,5030
27.2567,4818
27.2624,4408
27.2681,3086
27.2739,3328
27.2796,2646
27.2853,2629
27.291,2728
27.2967,2472
27.3025,2791
27.3082,1773
27.3139,2960
27.3196,2889
27.3253,2051
27.3311,2875
27.3368,3097
27.3425,4081
27.3482,3462
27.354,4510
27.3597,5233
27.3654,6177
27.3711,6156
27.3768,8026
27.3826,7416
27.3883,6407
27.394,5272
27.3997,5383
27.4055,4358
27.4112,3262
27.4169,3177
27.4226,2423
27.4283,2851
27.4341,2692
27.4398,2917
27.4455,3542
27.4512,1991
27.457,3055
27.4627,2588
27.4684,3597
27.4741,2755
27.4798,2716
27.4856,3429
27.4913,5472
27.497,4768
27.5027,4853
27.5085,5842
27.5142,5443
27.5199,5791
27.5256,5089
27.5313,4658
27.5371,4228
27.5428,3451
27.5485,2120
27.5542,2040
27.56,1604
27.5657,2123
27.5714,2120
27.5771,1626
27.5828,1945
27.5886,1925
27.5943,2166
27.6,2271
27.6057,2322
27.6115,2109
27.6172,2365
27.6229,2642
27.6286,2294
27.6343,2544
27.6401,2168
27.6458,1711
27.6515,2125
27.6572,2062
27.6629,2165
27.6687,1935
27.6744,1589
27.6801,1999
27.6858,1621
27.6916,2107
27.6973,1667
27.703,2169
27.7087,1954
27.7144,2287
27.7202,2485
27.7259,2746
27.7316,3489
27.7373,2504
27.7431,2880
27.7488,2384
27.7545,3340
27.7602,2644
27.7659,3343
27.7717,3557
27.7774,3191
27.7831,4879
27.7888,3912
27.7946,4994
27.8003,8027
27.806,10077
27.8117,11764
27.8174,15470
27.8232,17375
27.8289,17386
27.8346,15931
27.8403,12880
27.8461,10155
27.8518,6672
27.8575,5854
27.8632,4557
27.8689,4545
27.8747,3986
27.8804,3530
27.8861,3112
27.8918,3693
27.8976,2905
27.9033,3533
27.909,2387
27.9147,3080
27.9204,3116
27.9262,3654
27.9319,3517
27.9376,3311
27.9433,3711
27.9491,3471
27.9548,4664
27.9605,3406
27.9662,3973
27.9719,4197
27.9777,3866
27.9834,3455
27.9891,3837
27.9948,4494
28.0006,2529
28.0063,3214
28.012,1771
28.0177,2272
28.0234,2574
28.0292,2398
28.0349,1894
28.0406,2670
28.0463,3687
28.052,3938
28.0578,3006
28.0635,3758
28.0692,4563
28.0749,5696
28.0807,5959
28.0864,7520
28.0921,6733
28.0978,8283
28.1035,9284
28.1093,9019
28.115,10799
28.1207,9557
28.1264,8020
28.1322,6749
28.1379,3477
28.1436,4426
28.1493,3576
28.155,2305
28.1608,3712
28.1665,3145
28.1722,3171
28.1779,4025
28.1837,3553
28.1894,2250
28.1951,3515
28.2008,3587
28.2065,4573
28.2123,4087
28.218,4582
28.2237,4306
28.2294,5067
28.2352,5172
28.2409,4577
28.2466,5560
28.2523,4992
28.258,7010
28.2638,8907
28.2695,10987
28.2752,16091
28.2809,19093
28.2867,23215
28.2924,25287
28.2981,24234
28.3038,22240
28.3095,19521
28.3153,14258
28.321,10288
28.3267,7067
28.3324,4663
28.3382,4294
28.3439,4992
28.3496,5647
28.3553,5565
28.361,5325
28.3668,4466
28.3725,4729
28.3782,5334
28.3839,4423
28.3896,4644
28.3954,3574
28.4011,3433
28.4068,4272
28.4125,3443
28.4183,3492
28.424,3858
28.4297,2384
28.4354,4075
28.4411,3714
28.4469,5018
28.4526,5735
28.4583,5742
28.464,6251
28.4698,4647
28.4755,5046
28.4812,2839
28.4869,2581
28.4926,3125
28.4984,2873
28.5041,2254
28.5098,3116
28.5155,3080
28.5213,3667
28.527,5536
28.5327,7106
28.5384,8328
28.5441,8619
28.5499,9506
28.5556,9503
28.5613,9022
28.567,9036
28.5728,9367
28.5785,9186
28.5842,7154
28.5899,7346
28.5956,6531
28.6014,5726
28.6071,3931
28.6128,3842
28.6185,3727
28.6243,3552
28.63,3912
28.6357,3354
28.6414,2684
28.6471,2953
28.6529,3904
28.6586,3171
28.6643,2975
28.67,2794
28.6758,2933
28.6815,3307
28.6872,5425
28.6929,7145
28.6986,9883
28.7044,15650
28.7101,21507
28.7158,26874
28.7215,30519
28.7272,34101
28.733,36119
28.7387,39297
28.7444,47561
28.7501,50203
28.7559,58294
28.7616,51647
28.7673,49587
28.773,44210
28.7787,41561
28.7845,34679
28.7902,30238
28.7959,27947
28.8016,23249
28.8074,23336
28.8131,19539
28.8188,18516
28.8245,18970
28.8302,19907
28.836,18092
28.8417,17731
28.8474,17554
28.8531,15068
28.8589,13963
28.8646,13167
28.8703,11351
28.876,10279
28.8817,9299
28.8875,10340
28.8932,7949
28.8989,6330
28.9046,5347
28.9104,4658
28.9161,4523
28.9218,3822
28.9275,3313
28.9332,4157
28.939,3611
28.9447,3248
28.9504,3602
28.9561,4613
28.9619,4826
28.9676,6414
28.9733,7013
28.979,5838
28.9847,5374
28.9905,3954
28.9962,4939
29.0019,3741
29.0076,4948
29.0134,6025
29.0191,7088
29.0248,8541
29.0305,9594
29.0362,11992
29.042,12835
29.0477,11736
29.0534,11351
29.0591,12642
29.0648,10826
29.0706,10942
29.0763,8602
29.082,7903
29.0877,7719
29.0935,8172
29.0992,8610
29.1049,9527
29.1106,10108
29.1163,10156
29.1221,8711
29.1278,8575
29.1335,8486
29.1392,7575
29.145,8005
29.1507,6878
29.1564,8662
29.1621,9872
29.1678,13798
29.1736,15757
29.1793,21942
29.185,24452
29.1907,28280
29.1965,27723
29.2022,23946
29.2079,20637
29.2136,17520
29.2193,16600
29.2251,13090
29.2308,13119
29.2365,15304
29.2422,14295
29.248,14718
29.2537,15319
29.2594,17305
29.2651,23835
29.2708,32470
29.2766,48773
29.2823,71164
29.288,79119
29.2937,87833
29.2995,88861
29.3052,78357
29.3109,60950
29.3166,43342
29.3223,29842
29.3281,19327
29.3338,11651
29.3395,7022
29.3452,5285
29.351,4439
29.3567,4802
29.3624,4000
29.3681,4551
29.3738,3664
29.3796,3163
29.3853,3324
29.391,2680
29.3967,3144
29.4024,3531
29.4082,3349
29.4139,3903
29.4196,5418
29.4253,5166
29.4311,4535
29.4368,5608
29.4425,4754
29.4482,4694
29.4539,4409
29.4597,3457
29.4654,5026
29.4711,3021
29.4768,4878
29.4826,5228
29.4883,7548
29.494,11298
29.4997,17124
29.5054,26976
29.5112,41973
29.5169,54470
29.5226,67285
29.5283,74355
29.5341,75626
29.5398,68244
29.5455,60258
29.5512,49854
29.5569,38374
29.5627,30898
29.5684,28530
29.5741,27897
29.5798,27353
29.5856,25851
29.5913,23753
29.597,20839
29.6027,19203
29.6084,17665
29.6142,14344
29.6199,11852
29.6256,9580
29.6313,9589
29.6371,6672
29.6428,6689
29.6485,5489
29.6542,5870
29.6599,4396
29.6657,3907
29.6714,4081
29.6771,3370
29.6828,3153
29.6886,2471
29.6943,2585
29.7,2216
29.7057,1994
29.7114,3271
29.7172,3043
29.7229,3095
29.7286,3313
29.7343,3249
29.74,4828
29.7458,3887
29.7515,4001
29.7572,3906
29.7629,4919
29.7687,3251
29.7744,3316
29.7801,2366
29.7858,3524
29.7915,3105
29.7973,2744
29.803,2786
29.8087,2597
29.8144,3335
29.8202,2203
29.8259,3476
29.8316,2455
29.8373,2273
29.843,2307
29.8488,1950
29.8545,1395
29.8602,2179
29.8659,2159
29.8717,1372
29.8774,1156
29.8831,1390
29.8888,2390
29.8945,1802
29.9003,2613
29.906,2651
29.9117,4374
29.9174,5914
29.9232,8657
29.9289,12384
29.9346,17865
29.9403,28558
29.946,40010
29.9518,49994
29.9575,61415
29.9632,69716
29.9689,81878
29.9747,84014
29.9804,80479
29.9861,83538
29.9918,78730
29.9975,69995
30.0033,67204
30.009,55352
30.0147,45455
30.0204,37055
30.0262,29738
30.0319,23259
30.0376,18137
30.0433,15410
30.049,13943
30.0548,11218
30.0605,10893
30.0662,11566
30.0719,10288
30.0776,11820
30.0834,12301
30.0891,11604
30.0948,11486
30.1005,11339
30.1063,9888
30.112,9027
30.1177,7776
30.1234,7395
30.1291,6946
30.1349,6629
30.1406,5999
30.1463,5938
30.152,6326
30.1578,7960
30.1635,7451
30.1692,7082
30.1749,7112
30.1806,8253
30.1864,6488
30.1921,5543
30.1978,5710
30.2035,5406
30.2093,4199
30.215,5309
30.2207,4817
30.2264,5435
30.2321,3818
30.2379,2556
30.2436,3309
30.2493,4688
30.255,3754
30.2608,5479
30.2665,6948
30.2722,7891
30.2779,13537
30.2836,17104
30.2894,22551
30.2951,27892
30.3008,34499
30.3065,42239
30.3123,45634
30.318,47392
30.3237,45983
30.3294,43948
30.3351,43779
30.3409,40187
30.3466,36389
30.3523,35015
30.358,29267
30.3638,26119
30.3695,22831
30.3752,20895
30.3809,19232
30.3866,17022
30.3924,14464
30.3981,12677
30.4038,12811
30.4095,11302
30.4152,10362
30.421,8673
30.4267,10333
30.4324,8590
30.4381,8948
30.4439,11233
30.4496,10774
30.4553,10964
30.461,11022
30.4667,10093
30.4725,10961
30.4782,12353
30.4839,12918
30.4896,14431
30.4954,16932
30.5011,14814
30.5068,15008
30.5125,14764
30.5182,12983
30.524,11357
30.5297,9225
30.5354,8261
30.5411,6500
30.5469,5538
30.5526,5961
30.5583,7193
30.564,5737
30.5697,7577
30.5755,9485
30.5812,9253
30.5869,11395
30.5926,10757
30.5984,9499
30.6041,8712
30.6098,6694
30.6155,6672
30.6212,5536
30.627,6459
30.6327,4900
30.6384,5387
30.6441,6833
30.6499,6143
30.6556,6229
30.6613,7582
30.667,7856
30.6727,11946
30.6785,14875
30.6842,19627
30.6899,31250
30.6956,50917
30.7014,88735
30.7071,134695
30.7128,197162
30.7185,290049
30.7242,391243
30.73,490788
30.7357,627988
30.7414,768488
30.7471,908925
30.7529,1035911
30.7586,1168706
30.7643,1339013
30.77,1527336
30.7757,1695605
30.7815,1834476
30.7872,1976297
30.7929,2148104
30.7986,2352708
30.8043,2507428
30.8101,2677263
30.8158,2755745
30.8215,2825033
30.8272,2975241
30.833,3109126
30.8387,3243399
30.8444,2614710
30.8501,1435436
30.8558,498637
30.8616,181810
30.8673,99136
30.873,82124
30.8787,69225
30.8845,62830
30.8902,58882
30.8959,52989
30.9016,50439
30.9073,45490
30.9131,45539
30.9188,43913
30.9245,41701
30.9302,38450
30.936,38816
30.9417,37132
30.9474,35126
30.9531,34331
30.9588,31490
30.9646,32517
30.9703,31759
30.976,30554
30.9817,31895
30.9875,27806
30.9932,27775
30.9989,27617
31.0046,25458
31.0103,25018
31.0161,23289
31.0218,22548
31.0275,23165
31.0332,22559
31.039,20901
31.0447,22074
31.0504,21995
31.0561,20531
31.0618,20773
31.0676,19904
31.0733,19535
31.079,18287
31.0847,17456
31.0905,17748
31.0962,16704
31.1019,18292
31.1076,17439
31.1133,16119
31.1191,16336
31.1248,17869
31.1305,16304
31.1362,16037
31.1419,19100
31.1477,20349
31.1534,25247
31.1591,34572
31.1648,47672
31.1706,59605
31.1763,76145
31.182,92616
31.1877,101642
31.1934,106263
31.1992,99330
31.2049,83479
31.2106,73393
31.2163,61205
31.2221,52355
31.2278,41342
31.2335,33293
31.2392,28712
31.2449,23939
31.2507,20484
31.2564,18980
31.2621,19066
31.2678,17946
31.2736,17295
31.2793,17795
31.285,17764
31.2907,17151
31.2964,17822
31.3022,17752
31.3079,17787
31.3136,17754
31.3193,15987
31.3251,15939
31.3308,15082
31.3365,13550
31.3422,12523
31.3479,13697
31.3537,12983
31.3594,15306
31.3651,15398
31.3708,16277
31.3766,16261
31.3823,16164
31.388,15913
31.3937,15396
31.3994,14712
31.4052,14444
31.4109,14248
31.4166,14351
31.4223,14552
31.4281,13405
31.4338,12882
31.4395,12797
31.4452,11620
31.4509,11731
31.4567,10335
31.4624,10424
31.4681,10259
31.4738,10216
31.4795,8622
31.4853,9869
31.491,7649
31.4967,9809
31.5024,8678
31.5082,9588
31.5139,9141
31.5196,9178
31.5253,10050
31.531,8525
31.5368,8942
31.5425,9490
31.5482,10431
31.5539,8676
31.5597,10978
31.5654,10937
31.5711,9415
31.5768,9468
31.5825,10009
31.5883,10324
31.594,8854
31.5997,9157
31.6054,8836
31.6112,10320
31.6169,9542
31.6226,9929
31.6283,10803
31.634,11137
31.6398,12249
31.6455,15447
31.6512,17541
31.6569,19314
31.6627,18819
31.6684,20542
31.6741,21957
31.6798,23093
31.6855,20146
31.6913,20871
31.697,21213
31.7027,19779
31.7084,19033
31.7142,19112
31.7199,24104
31.7256,35634
31.7313,61691
31.737,101951
31.7428,173626
31.7485,275535
31.7542,423945
31.7599,577963
31.7657,765639
31.7714,940055
31.7771,1049312
31.7828,1043912
31.7885,956357
31.7943,768067
31.8,532958
31.8057,321526
31.8114,173275
31.8171,91249
31.8229,48891
31.8286,32345
31.8343,25298
31.84,20182
31.8458,20826
31.8515,18563
31.8572,19921
31.8629,19676
31.8686,19723
31.8744,19482
31.8801,18979
31.8858,17042
31.8915,13745
31.8973,15039
31.903,13545
31.9087,15252
31.9144,13431
31.9201,12514
31.9259,13758
31.9316,13982
31.9373,12368
31.943,12328
31.9488,12517
31.9545,13419
31.9602,11256
31.9659,10880
31.9716,10419
31.9774,8433
31.9831,10141
31.9888,8699
31.9945,8275
32.0003,8990
32.006,7838
32.0117,7608
32.0174,7671
32.0231,8320
32.0288,8424
32.0346,9080
32.0403,8419
32.046,9226
32.0517,9330
32.0575,10816
32.0632,10476
32.0689,11893
32.0746,10008
32.0804,9681
32.0861,9037
32.0918,9749
32.0975,9122
32.1033,8550
32.109,7701
32.1147,8547
32.1204,9081
32.1261,8259
32.1319,9645
32.1376,12167
32.1433,12598
32.149,16289
32.1547,18427
32.1605,19747
32.1662,20779
32.1719,22181
32.1776,19402
32.1833,15372
32.1891,14192
32.1948,11817
32.2005,11208
32.2062,9762
32.212,8950
32.2177,9945
32.2234,9493
32.2291,12195
32.2349,15040
32.2406,13866
32.2463,14013
32.252,15097
32.2577,14164
32.2635,13016
32.2692,10553
32.2749,7614
32.2806,8846
32.2863,7327
32.2921,8174
32.2978,6645
32.3035,7939
32.3092,7746
32.315,7825
32.3207,8943
32.3264,9257
32.3321,9360
32.3379,9805
32.3436,10225
32.3493,13823
32.355,12686
32.3607,11748
32.3665,11370
32.3722,10042
32.3779,9278
32.3836,8979
32.3894,8345
32.3951,11395
32.4008,17036
32.4065,20979
32.4122,27243
32.4179,35079
32.4237,38030
32.4294,40310
32.4351,39849
32.4408,34271
32.4466,29407
32.4523,23253
32.458,18812
32.4637,12512
32.4695,12804
32.4752,10497
32.4809,10960
32.4866,10506
32.4923,10013
32.4981,9669
32.5038,10008
32.5095,10140
32.5152,10517
32.5209,9485
32.5267,8783
32.5324,9773
32.5381,9514
32.5438,9479
32.5496,9283
32.5553,9359
32.561,11062
32.5667,11802
32.5725,13076
32.5782,12632
32.5839,13427
32.5896,12507
32.5953,15093
32.6011,16473
32.6068,17817
32.6125,19749
32.6182,21362
32.624,22821
32.6297,23629
32.6354,22514
32.6411,25511
32.6468,22246
32.6525,21306
32.6583,19787
32.664,17597
32.6697,17660
32.6754,15580
32.6812,15407
32.6869,14290
32.6926,15432
32.6983,14607
32.7041,16717
32.7098,18351
32.7155,17787
32.7212,17443
32.727,16346
32.7327,16880
32.7384,14975
32.7441,12596
32.7498,11390
32.7555,9638
32.7613,9092
32.767,8512
32.7727,10035
32.7784,10175
32.7842,12029
32.7899,12697
32.7956,15519
32.8013,15830
32.807,14744
32.8128,15007
32.8185,15384
32.8242,15363
32.8299,15100
32.8357,12190
32.8414,11272
32.8471,11220
32.8528,9821
32.8586,9894
32.8643,10519
32.87,11083
32.8757,8268
32.8814,9053
32.8872,10122
32.8929,8713
32.8986,7403
32.9043,7448
32.91,6131
32.9158,7216
32.9215,5491
32.9272,7341
32.9329,7984
32.9387,10376
32.9444,15451
32.9501,25256
32.9558,38217
32.9616,56391
32.9673,75660
32.973,97824
32.9787,117099
32.9844,120290
32.9902,117392
32.9959,105637
33.0016,85894
33.0073,67906
33.0131,56621
33.0188,49616
33.0245,47582
33.0302,48006
33.0359,43601
33.0416,39446
33.0474,32848
33.0531,26428
33.0588,21817
33.0645,18522
33.0703,17148
33.076,16413
33.0817,17678
33.0874,20479
33.0932,23338
33.0989,25949
33.1046,30367
33.1103,31957
33.1161,32316
33.1218,32245
33.1275,32475
33.1332,29179
33.1389,26152
33.1446,24867
33.1504,21583
33.1561,21489
33.1618,17980
33.1675,17202
33.1733,15891
33.179,15652
33.1847,16916
33.1904,15976
33.1962,17464
33.2019,18254
33.2076,18581
33.2133,21482
33.219,21075
33.2248,20768
33.2305,20476
33.2362,20142
33.2419,18289
33.2477,18410
33.2534,15577
33.2591,14591
33.2648,13690
33.2705,13406
33.2763,12624
33.282,9995
33.2877,12211
33.2934,13151
33.2991,15304
33.3049,18764
33.3106,19528
33.3163,21980
33.322,22557
33.3278,21212
33.3335,23170
33.3392,22856
33.3449,23673
33.3507,23872
33.3564,24664
33.3621,28064
33.3678,34432
33.3735,44796
33.3792,55559
33.385,66912
33.3907,70985
33.3964,74239
33.4021,67316
33.4079,57653
33.4136,47665
33.4193,37239
33.425,27883
33.4308,22757
33.4365,22311
33.4422,20908
33.4479,19164
33.4537,16811
33.4594,14520
33.4651,13715
33.4708,12132
33.4765,9962
33.4823,10285
33.488,8390
33.4937,8480
33.4994,10338
33.5052,10427
33.5109,13366
33.5166,19594
33.5223,26133
33.528,35050
33.5337,46514
33.5395,55346
33.5452,62586
33.5509,64475
33.5566,63002
33.5624,56337
33.5681,47010
33.5738,38839
33.5795,28678
33.5853,24833
33.591,21894
33.5967,16700
33.6024,15620
33.6081,13011
33.6139,12806
33.6196,11153
33.6253,11457
33.631,10969
33.6367,13408
33.6425,13646
33.6482,15306
33.6539,17223
33.6596,21666
33.6654,25518
33.6711,27856
33.6768,30459
33.6825,29264
33.6882,29458
33.694,29630
33.6997,25000
33.7054,22163
33.7111,18719
33.7169,18966
33.7226,16559
33.7283,16497
33.734,16542
33.7398,15986
33.7455,15772
33.7512,15800
33.7569,16229
33.7626,16599
33.7683,17919
33.7741,18193
33.7798,18743
33.7855,16725
33.7912,16238
33.797,15744
33.8027,15716
33.8084,14566
33.8141,15464
33.8199,16400
33.8256,17916
33.8313,19435
33.837,19656
33.8428,20062
33.8485,19616
33.8542,18283
33.8599,17398
33.8656,13133
33.8714,13245
33.8771,11238
33.8828,9785
33.8885,10200
33.8942,10611
33.9,10469
33.9057,9128
33.9114,8303
33.9171,8692
33.9228,9279
33.9286,9029
33.9343,10326
33.94,9808
33.9457,12109
33.9515,13203
33.9572,16169
33.9629,17932
33.9686,16745
33.9744,19044
33.9801,17194
33.9858,16510
33.9915,13344
33.9972,10821
34.003,8117
34.0087,6369
34.0144,5607
34.0201,6235
34.0258,4304
34.0316,4154
34.0373,4467
34.043,4515
34.0487,3864
34.0545,3255
34.0602,4424
34.0659,3312
34.0716,2809
34.0774,3227
34.0831,3602
34.0888,3322
34.0945,3726
34.1002,3927
34.106,4440
34.1117,4651
34.1174,4963
34.1231,4334
34.1289,3493
34.1346,4365
34.1403,4162
34.146,3788
34.1517,4201
34.1574,4060
34.1632,4512
34.1689,2983
34.1746,3944
34.1803,3630
34.1861,4274
34.1918,4855
34.1975,4898
34.2032,4586
34.209,5942
34.2147,5588
34.2204,6250
34.2261,4926
34.2318,5692
34.2376,4198
34.2433,4751
34.249,2836
34.2547,3557
34.2604,4021
34.2662,3453
34.2719,3541
34.2776,3716
34.2833,3173
34.2891,3872
34.2948,3442
34.3005,4843
34.3062,4258
34.312,3880
34.3177,4188
34.3234,4074
34.3291,3890
34.3348,3800
34.3406,3380
34.3463,3851
34.352,3953
34.3577,5262
34.3635,4849
34.3692,4491
34.3749,4545
34.3806,4673
34.3863,5293
34.392,5871
34.3978,5430
34.4035,5366
34.4092,6235
34.4149,6438
34.4207,7319
34.4264,7934
34.4321,8238
34.4378,9804
34.4436,11753
34.4493,11440
34.455,12328
34.4607,11709
34.4665,12582
34.4722,10715
34.4779,8559
34.4836,8174
34.4893,7141
34.495,5071
34.5008,4056
34.5065,2942
34.5122,3068
34.5179,3583
34.5237,2730
34.5294,2679
34.5351,3639
34.5408,3252
34.5466,3141
34.5523,2671
34.558,3407
34.5637,3267
34.5694,4054
34.5752,3113
34.5809,2744
34.5866,3512
34.5923,4014
34.5981,2982
34.6038,3366
34.6095,2757
34.6152,3973
34.6209,2835
34.6267,3875
34.6324,3481
34.6381,2930
34.6438,3313
34.6495,2979
34.6553,3975
34.661,5301
34.6667,4522
34.6724,5600
34.6782,6141
34.6839,6528
34.6896,6312
34.6953,5815
34.7011,5106
34.7068,5161
34.7125,4106
34.7182,5582
34.7239,4210
34.7296,3197
34.7354,3297
34.7411,3271
34.7468,4649
34.7525,5339
34.7583,4967
34.764,3622
34.7697,4844
34.7754,4156
34.7811,4182
34.7869,3266
34.7926,3046
34.7983,3980
34.804,3958
34.8098,2420
34.8155,3930
34.8212,3668
34.8269,4741
34.8327,3878
34.8384,4159
34.8441,3603
34.8498,3596
34.8556,4520
34.8613,5352
34.867,4196
34.8727,3453
34.8784,3369
34.8841,3326
34.8899,2684
34.8956,3252
34.9013,2937
34.907,3766
34.9128,2089
34.9185,2936
34.9242,2048
34.9299,2562
34.9357,3110
34.9414,3009
34.9471,3179
34.9528,4200
34.9585,2722
34.9643,2726
34.97,3526
34.9757,3033
34.9814,2567
34.9872,1343
34.9929,2426
34.9986,2867
35.0043,2285
35.01,2743
35.0158,2685
35.0215,2548
35.0272,3725
35.0329,1268
35.0387,2310
35.0444,2809
35.0501,2346
35.0558,2267
35.0615,1865
35.0673,1839
35.073,2265
35.0787,3912
35.0844,2780
35.0902,3950
35.0959,3673
35.1016,4555
35.1073,3351
35.113,3840
35.1187,4904
35.1245,4232
35.1302,3723
35.1359,3453
35.1416,3884
35.1474,4059
35.1531,3417
35.1588,3423
35.1645,3877
35.1703,3666
35.176,3156
35.1817,3112
35.1874,3448
35.1932,2898
35.1989,3179
35.2046,1887
35.2103,2851
35.216,3225
35.2218,3993
35.2275,3849
35.2332,5041
35.2389,4831
35.2446,5882
35.2504,5272
35.2561,7350
35.2618,5880
35.2675,6469
35.2733,5611
35.279,6769
35.2847,5153
35.2904,6163
35.2961,5544
35.3019,5824
35.3076,5217
35.3133,4890
35.319,4920
35.3248,4647
35.3305,4841
35.3362,4217
35.3419,3550
35.3476,4628
35.3534,3325
35.3591,3027
35.3648,2991
35.3705,2866
35.3762,2061
35.382,2377
35.3877,2185
35.3934,2965
35.3991,4090
35.4049,3666
35.4106,4777
35.4163,4514
35.422,3882
35.4278,3803
35.4335,4162
35.4392,2562
35.4449,3122
35.4506,3483
35.4564,2558
35.4621,2883
35.4678,4583
35.4735,2303
35.4793,3444
35.485,2767
35.4907,3457
35.4964,3867
35.5021,4150
35.5079,2990
35.5136,3470
35.5193,3718
35.525,3161
35.5308,3545
35.5365,3178
35.5422,4357
35.5479,4287
35.5536,3864
35.5594,5107
35.5651,4511
35.5708,4421
35.5765,3461
35.5822,4305
35.588,3589
35.5937,3013
35.5994,3434
35.6051,4124
35.6108,1845
35.6166,3188
35.6223,2590
35.628,3320
35.6337,2680
35.6395,3375
35.6452,2514
35.6509,2589
35.6566,2850
35.6624,3024
35.6681,3255
35.6738,3799
35.6795,3486
35.6852,4251
35.691,3574
35.6967,4838
35.7024,4430
35.7081,4384
35.7139,4289
35.7196,3455
35.7253,3242
35.731,3317
35.7367,2949
35.7425,4240
35.7482,4294
35.7539,3911
35.7596,3421
35.7654,4609
35.7711,3938
35.7768,3792
35.7825,3079
35.7882,3685
35.794,3375
35.7997,3062
35.8054,2960
35.8111,2493
35.8169,2585
35.8226,3745
35.8283,3805
35.834,3234
35.8397,3560
35.8455,4119
35.8512,3299
35.8569,3411
35.8626,4450
35.8684,2667
35.8741,4471
35.8798,3279
35.8855,3958
35.8912,3739
35.897,3913
35.9027,4458
35.9084,3526
35.9141,4009
35.9199,4247
35.9256,4095
35.9313,4383
35.937,5038
35.9427,3106
35.9485,3229
35.9542,3786
35.9599,4326
35.9656,3870
35.9713,4886
35.9771,4119
35.9828,4817
35.9885,5370
35.9942,4361
35.9999,4062
36.0057,5043
36.0114,4802
36.0171,4492
36.0228,4502
36.0286,3919
36.0343,4441
36.04,4406
36.0457,5245
36.0515,4406
36.0572,5483
36.0629,5599
36.0686,5348
36.0743,5936
36.0801,6283
36.0858,6324
36.0915,5354
36.0972,6411
36.103,5266
36.1087,4956
36.1144,5253
36.1201,4460
36.1258,3604
36.1316,4234
36.1373,4014
36.143,4664
36.1487,4263
36.1545,4321
36.1602,4886
36.1659,5815
36.1716,4461
36.1773,4256
36.1831,5492
36.1888,5207
36.1945,5081
36.2002,3534
36.206,3836
36.2117,5138
36.2174,4576
36.2231,4781
36.2288,4744
36.2345,3614
36.2403,4114
36.246,4088
36.2517,5518
36.2574,4935
36.2632,4521
36.2689,5411
36.2746,5310
36.2803,4642
36.2861,4360
36.2918,3981
36.2975,4840
36.3032,4059
36.3089,3760
36.3147,5725
36.3204,4257
36.3261,4543
36.3318,4887
36.3376,4296
36.3433,4628
36.349,3726
36.3547,4748
36.3604,5701
36.3662,4192
36.3719,4803
36.3776,4570
36.3833,5374
36.3891,4401
36.3948,4506
36.4005,4483
36.4062,4913
36.4119,4782
36.4177,5286
36.4234,5251
36.4291,3603
36.4348,4704
36.4406,4783
36.4463,5854
36.452,5508
36.4577,7964
36.4634,9573
36.4691,8856
36.4749,9894
36.4806,9387
36.4863,10491
36.492,11227
36.4978,9535
36.5035,7069
36.5092,7828
36.5149,6592
36.5207,6721
36.5264,6306
36.5321,6057
36.5378,5703
36.5436,4859
36.5493,4298
36.555,4898
36.5607,5319
36.5664,4981
36.5722,4983
36.5779,4625
36.5836,4637
36.5893,3411
36.5951,4003
36.6008,4550
36.6065,3378
36.6122,3476
36.6179,2987
36.6237,3779
36.6294,4151
36.6351,3372
36.6408,2253
36.6465,3364
36.6523,5205
36.658,6072
36.6637,9546
36.6694,15119
36.6752,26672
36.6809,41875
36.6866,62354
36.6923,99025
36.698,131210
36.7038,159564
36.7095,163457
36.7152,155763
36.7209,131356
36.7266,103320
36.7324,73597
36.7381,50726
36.7438,34335
36.7495,25560
36.7553,17266
36.761,13670
36.7667,11872
36.7724,12508
36.7782,12889
36.7839,13171
36.7896,13894
36.7953,13968
36.801,14286
36.8068,16546
36.8125,16340
36.8182,14040
36.8239,13279
36.8297,12511
36.8354,12614
36.8411,12962
36.8468,12270
36.8525,11053
36.8583,11207
36.864,9872
36.8697,10499
36.8754,9059
36.8812,10001
36.8869,8103
36.8926,9373
36.8983,8346
36.904,7493
36.9098,8922
36.9155,7716
36.9212,7487
36.9269,5937
36.9327,7365
36.9384,7373
36.9441,8275
36.9498,8414
36.9555,8414
36.9613,8824
36.967,8156
36.9727,9271
36.9784,10630
36.9841,11575
36.9899,12555
36.9956,15099
37.0013,15919
37.007,17024
37.0128,18318
37.0185,18688
37.0242,20040
37.0299,17783
37.0356,19429
37.0414,17638
37.0471,16848
37.0528,16868
37.0585,14124
37.0643,12419
37.07,11292
37.0757,11333
37.0814,10794
37.0871,8245
37.0929,8352
37.0986,9541
37.1043,8276
37.11,6827
37.1157,7586
37.1215,7612
37.1272,8093
37.1329,8728
37.1386,8765
37.1444,10580
37.1501,10881
37.1558,15000
37.1615,17577
37.1673,23115
37.173,26319
37.1787,29648
37.1844,26314
37.1901,27681
37.1959,21545
37.2016,18795
37.2073,18164
37.213,13982
37.2188,12499
37.2245,11254
37.2302,10696
37.2359,11450
37.2416,10849
37.2474,12227
37.2531,13174
37.2588,14085
37.2645,17186
37.2703,18739
37.276,19770
37.2817,21128
37.2874,21452
37.2931,19042
37.2989,17578
37.3046,15239
37.3103,14891
37.316,13302
37.3217,12140
37.3275,11675
37.3332,11586
37.3389,11097
37.3446,10801
37.3503,9473
37.3561,10141
37.3618,9783
37.3675,8961
37.3732,8833
37.379,10791
37.3847,9386
37.3904,10758
37.3961,11574
37.4019,10700
37.4076,11451
37.4133,12380
37.419,11918
37.4247,11347
37.4305,10931
37.4362,11857
37.4419,12852
37.4476,11391
37.4534,11500
37.4591,13224
37.4648,13155
37.4705,16403
37.4762,17084
37.482,17504
37.4877,18826
37.4934,16870
37.4991,15940
37.5049,17223
37.5106,16531
37.5163,14778
37.522,14905
37.5277,13895
37.5335,13058
37.5392,13956
37.5449,14733
37.5506,13603
37.5564,14578
37.5621,12538
37.5678,12299
37.5735,12173
37.5792,11123
37.5849,12366
37.5907,12362
37.5964,13096
37.6021,13230
37.6078,12493
37.6136,12391
37.6193,12768
37.625,11919
37.6307,12299
37.6365,12554
37.6422,13639
37.6479,12456
37.6536,11213
37.6593,13496
37.6651,12806
37.6708,13930
37.6765,14418
37.6822,16184
37.688,15208
37.6937,15520
37.6994,14868
37.7051,13154
37.7108,12903
37.7166,14426
37.7223,13810
37.728,15229
37.7337,13634
37.7395,12054
37.7452,12370
37.7509,11914
37.7566,11218
37.7623,13049
37.7681,12831
37.7738,11562
37.7795,11344
37.7852,12333
37.791,13220
37.7967,15835
37.8024,18376
37.8081,25113
37.8138,30578
37.8196,39197
37.8253,48976
37.831,55893
37.8367,64095
37.8424,64114
37.8482,59818
37.8539,52128
37.8596,43843
37.8653,36285
37.8711,29639
37.8768,24972
37.8825,20895
37.8882,16983
37.894,14252
37.8997,16163
37.9054,13884
37.9111,14312
37.9168,12773
37.9226,12955
37.9283,12651
37.934,13887
37.9397,11487
37.9455,13137
37.9512,12964
37.9569,14197
37.9626,14038
37.9683,13536
37.974,12541
37.9798,14000
37.9855,13858
37.9912,13414
37.9969,14134
38.0027,13765
38.0084,12780
38.0141,14179
38.0198,12257
38.0256,12417
38.0313,13529
38.037,13628
38.0427,14210
38.0484,17664
38.0542,21469
38.0599,27105
38.0656,38458
38.0713,53609
38.0771,73386
38.0828,100975
38.0885,130061
38.0942,148119
38.0999,157618
38.1057,159835
38.1114,148759
38.1171,126963
38.1228,111626
38.1286,94298
38.1343,79197
38.14,64657
38.1457,59996
38.1514,53349
38.1572,48511
38.1629,45218
38.1686,40420
38.1743,34021
38.1801,30535
38.1858,27058
38.1915,24239
38.1972,21251
38.2029,20188
38.2086,18728
38.2144,16942
38.2201,17694
38.2258,16544
38.2315,16807
38.2373,16430
38.243,15004
38.2487,12919
38.2544,14346
38.2602,15252
38.2659,14787
38.2716,13660
38.2773,14276
38.2831,12677
38.2888,14171
38.2945,13355
38.3002,11345
38.3059,13280
38.3117,12670
38.3174,11844
38.3231,11873
38.3288,13091
38.3345,12852
38.3403,14454
38.346,13422
38.3517,14202
38.3574,15030
38.3632,13726
38.3689,13993
38.3746,13280
38.3803,11085
38.386,10070
38.3918,11331
38.3975,10845
38.4032,9684
38.4089,10120
38.4147,9829
38.4204,9978
38.4261,9821
38.4318,8509
38.4375,9452
38.4433,9967
38.449,9312
38.4547,9496
38.4604,9233
38.4661,9391
38.4719,8811
38.4776,9274
38.4833,9526
38.489,8754
38.4948,8773
38.5005,7922
38.5062,8666
38.5119,7546
38.5177,10181
38.5234,8410
38.5291,9591
38.5348,9073
38.5405,9506
38.5463,9491
38.552,9036
38.5577,8302
38.5634,10079
38.5692,7713
38.5749,8919
38.5806,8899
38.5863,9972
38.592,12134
38.5978,13740
38.6035,15871
38.6092,17286
38.6149,15824
38.6207,13176
38.6264,11214
38.6321,9829
38.6378,8533
38.6435,9270
38.6493,7415
38.655,8326
38.6607,8377
38.6664,8919
38.6722,8698
38.6779,9117
38.6836,9496
38.6893,8981
38.695,9222
38.7007,7605
38.7065,6514
38.7122,6015
38.7179,6130
38.7236,6228
38.7294,5751
38.7351,5221
38.7408,5291
38.7465,6256
38.7523,5935
38.758,5874
38.7637,5733
38.7694,7003
38.7751,5793
38.7809,7215
38.7866,7636
38.7923,7086
38.798,8287
38.8038,8378
38.8095,7748
38.8152,7700
38.8209,8715
38.8266,6661
38.8324,7343
38.8381,6938
38.8438,6108
38.8495,6069
38.8553,8003
38.861,6581
38.8667,5995
38.8724,5513
38.8781,5739
38.8839,6886
38.8896,7047
38.8953,6706
38.901,5754
38.9068,6351
38.9125,5061
38.9182,4822
38.9239,5688
38.9296,5573
38.9354,6155
38.9411,6157
38.9468,4369
38.9525,5321
38.9583,6474
38.964,6656
38.9697,6768
38.9754,5373
38.9811,5964
38.9869,5515
38.9926,5764
38.9983,5324
39.004,5752
39.0098,5487
39.0155,5304
39.0212,6828
39.0269,7177
39.0326,7764
39.0384,8348
39.0441,9260
39.0498,11557
39.0555,10939
39.0612,9988
39.067,10836
39.0727,9373
39.0784,8839
39.0841,8451
39.0898,6485
39.0956,6171
39.1013,7808
39.107,7368
39.1127,7888
39.1185,7974
39.1242,7098
39.1299,8276
39.1356,8213
39.1414,8602
39.1471,8012
39.1528,8955
39.1585,8455
39.1642,7967
39.17,7413
39.1757,7904
39.1814,8412
39.1871,6676
39.1929,6659
39.1986,7030
39.2043,7745
39.21,9118
39.2157,7573
39.2215,7216
39.2272,9520
39.2329,8343
39.2386,9898
39.2444,11674
39.2501,11406
39.2558,10910
39.2615,10135
39.2672,9954
39.273,8936
39.2787,7324
39.2844,8537
39.2901,9451
39.2959,8731
39.3016,8720
39.3073,9533
39.313,8616
39.3187,8273
39.3244,9120
39.3302,8475
39.3359,8676
39.3416,8350
39.3473,7660
39.3531,8683
39.3588,7981
39.3645,10022
39.3702,10554
39.376,9318
39.3817,9727
39.3874,9423
39.3931,9955
39.3988,10133
39.4046,10451
39.4103,7978
39.416,9183
39.4217,7006
39.4275,7995
39.4332,9284
39.4389,10672
39.4446,8640
39.4503,9533
39.4561,8917
39.4618,11871
39.4675,13850
39.4732,15175
39.479,18594
39.4847,24357
39.4904,25636
39.4961,23580
39.5018,20035
39.5076,19042
39.5133,14909
39.519,13327
39.5247,11118
39.5305,14086
39.5362,12329
39.5419,12598
39.5476,11871
39.5533,11955
39.559,12247
39.5648,12730
39.5705,13736
39.5762,15337
39.5819,14909
39.5877,13604
39.5934,14270
39.5991,14291
39.6048,12737
39.6106,13191
39.6163,13369
39.622,13501
39.6277,13764
39.6335,13236
39.6392,15241
39.6449,13504
39.6506,14141
39.6563,15038
39.6621,14653
39.6678,15796
39.6735,13614
39.6792,13704
39.685,16301
39.6907,13569
39.6964,14148
39.7021,13771
39.7078,15551
39.7136,14993
39.7193,15785
39.725,16687
39.7307,16789
39.7364,14704
39.7422,15220
39.7479,15091
39.7536,16839
39.7593,15833
39.7651,15509
39.7708,14202
39.7765,16423
39.7822,15475
39.7879,16644
39.7937,15945
39.7994,15577
39.8051,15037
39.8108,15150
39.8165,15680
39.8223,15109
39.828,15564
39.8337,16151
39.8394,16528
39.8452,16367
39.8509,16519
39.8566,18778
39.8623,19375
39.8681,19651
39.8738,16325
39.8795,15474
39.8852,16261
39.8909,15758
39.8967,16874
39.9024,15487
39.9081,16823
39.9138,17106
39.9196,16407
39.9253,16395
39.931,17980
39.9367,15472
39.9424,17323
39.9482,18012
39.9539,16210
39.9596,16359
39.9653,19006
39.9711,19429
39.9768,17526
39.9825,18579
39.9882,17984
39.9939,18287
39.9997,19223
40.0054,18715
40.0111,17035
40.0168,18153
40.0226,15802
40.0283,18000
40.034,17529
40.0397,19100
40.0454,17747
40.0512,19384
40.0569,20391
40.0626,18341
40.0683,18303
40.074,16469
40.0798,18130
40.0855,20427
40.0912,19195
40.0969,18369
40.1027,18554
40.1084,18333
40.1141,20796
40.1198,20152
40.1255,24242
40.1313,21486
40.137,23325
40.1427,20636
40.1484,20839
40.1542,22108
40.1599,21636
40.1656,23758
40.1713,24766
40.177,25513
40.1828,24790
40.1885,26162
40.1942,26227
40.1999,27235
40.2056,27941
40.2114,27472
40.2171,27120
40.2228,28196
40.2285,29872
40.2343,32159
40.24,32232
40.2457,29400
40.2514,29556
40.2572,29529
40.2629,32282
40.2686,32140
40.2743,30631
40.28,34817
40.2858,34141
40.2915,32861
40.2972,33984
40.3029,33034
40.3087,32457
40.3144,30460
40.3201,31032
40.3258,27997
40.3315,29179
40.3373,28815
40.343,27249
40.3487,29446
40.3544,32091
40.3602,31851
40.3659,31534
40.3716,33227
40.3773,30268
40.383,28429
40.3888,28220
40.3945,29027
40.4002,29095
40.4059,28781
40.4116,26940
40.4174,28992
40.4231,27319
40.4288,32165
40.4345,29647
40.4402,28259
40.446,28521
40.4517,31361
40.4574,28559
40.4631,30401
40.4689,29038
40.4746,31040
40.4803,30750
40.486,28792
40.4918,30999
40.4975,30270
40.5032,30926
40.5089,30562
40.5146,31337
40.5204,32018
40.5261,32596
40.5318,32965
40.5375,36072
40.5433,32803
40.549,33743
40.5547,32671
40.5604,34308
40.5661,33246
40.5719,33558
40.5776,33206
40.5833,35277
40.589,34758
40.5948,35004
40.6005,34929
40.6062,36029
40.6119,35331
40.6176,35274
40.6234,36321
40.6291,34465
40.6348,37274
40.6405,36566
40.6463,37952
40.652,40366
40.6577,41512
40.6634,40739
40.6691,42501
40.6748,42140
40.6806,41753
40.6863,42907
40.692,40844
40.6977,44622
40.7035,42185
40.7092,43539
40.7149,45807
40.7206,43647
40.7264,45277
40.7321,42777
40.7378,44267
40.7435,44769
40.7492,46073
40.755,42264
40.7607,44048
40.7664,46341
40.7721,44958
40.7779,45414
40.7836,44263
40.7893,43717
40.795,44685
40.8007,45829
40.8065,47023
40.8122,45929
40.8179,46508
40.8236,50636
40.8294,49094
40.8351,49239
40.8408,47739
40.8465,47892
40.8522,52269
40.858,52826
40.8637,54017
40.8694,54617
40.8751,54576
40.8809,56687
40.8866,60331
40.8923,54515
40.898,58608
40.9037,60846
40.9095,61439
40.9152,61196
40.9209,60862
40.9266,61056
40.9324,59457
40.9381,57374
40.9438,56936
40.9495,59564
40.9552,55914
40.961,55684
40.9667,54416
40.9724,58226
40.9781,56993
40.9839,57930
40.9896,56243
40.9953,52974
41.001,54632
41.0067,56303
41.0125,55269
41.0182,56087
41.0239,58377
41.0296,60117
41.0354,58663
41.0411,58914
41.0468,63771
41.0525,63841
41.0582,67263
41.064,65608
41.0697,70861
41.0754,75059
41.0811,79452
41.0868,80304
41.0926,83763
41.0983,79491
41.104,84060
41.1097,87574
41.1155,90706
41.1212,89165
41.1269,92844
41.1326,93180
41.1383,94708
41.1441,99375
41.1498,99531
41.1555,103852
41.1612,108613
41.167,109689
41.1727,116431
41.1784,121649
41.1841,122507
41.1898,118996
41.1956,118953
41.2013,114128
41.207,116098
41.2127,113407
41.2185,105681
41.2242,107400
41.2299,105988
41.2356,103993
41.2413,99005
41.2471,96115
41.2528,88973
41.2585,89853
41.2642,91700
41.27,87203
41.2757,86842
41.2814,85750
41.2871,86649
41.2928,81100
41.2985,82291
41.3043,85900
41.31,86421
41.3157,82445
41.3214,86630
41.3272,84040
41.3329,85392
41.3386,85331
41.3443,84629
41.3501,82345
41.3558,88503
41.3615,87666
41.3672,87899
41.373,90584
41.3787,90331
41.3844,91741
41.3901,95458
41.3958,101706
41.4016,105457
41.4073,107595
41.413,102915
41.4187,109523
41.4245,105629
41.4302,104156
41.4359,103629
41.4416,104142
41.4473,100497
41.4531,99585
41.4588,99159
41.4645,99164
41.4702,98570
41.4759,96530
41.4817,93915
41.4874,92190
41.4931,95368
41.4988,97370
41.5046,91954
41.5103,98473
41.516,92610
41.5217,91057
41.5274,94814
41.5332,96103
41.5389,95339
41.5446,93905
41.5503,98271
41.556,96748
41.5618,94254
41.5675,100150
41.5732,101490
41.5789,108517
41.5847,107731
41.5904,106049
41.5961,99516
41.6018,95891
41.6076,95951
41.6133,95691
41.619,98370
41.6247,99158
41.6304,101711
41.6362,99135
41.6419,100781
41.6476,99654
41.6533,106645
41.6591,101770
41.6648,104888
41.6705,105525
41.6762,110124
41.6819,111099
41.6877,108436
41.6934,106916
41.6991,102875
41.7048,106430
41.7106,104970
41.7163,107985
41.722,105757
41.7277,107509
41.7334,109695
41.7392,108806
41.7449,114470
41.7506,117589
41.7563,114690
41.7621,118123
41.7678,120426
41.7735,119765
41.7792,122559
41.7849,123355
41.7906,117525
41.7964,116093
41.8021,117257
41.8078,115122
41.8135,119105
41.8193,116820
41.825,115407
41.8307,113057
41.8364,112220
41.8422,116848
41.8479,116593
41.8536,116769
41.8593,113761
41.865,115125
41.8708,117507
41.8765,116166
41.8822,117187
41.8879,118817
41.8937,120796
41.8994,123728
41.9051,125084
41.9108,126401
41.9165,122317
41.9223,125506
41.928,122479
41.9337,127098
41.9394,121827
41.9452,122068
41.9509,120028
41.9566,126362
41.9623,124923
41.968,122597
41.9738,125017
41.9795,125216
41.9852,124518
41.9909,125578
41.9967,125893
42.0024,129935
42.0081,126363
42.0138,127048
42.0195,124418
42.0253,134298
42.031,127184
42.0367,128079
42.0424,128684
42.0482,128474
42.0539,131629
42.0596,132345
42.0653,134208
42.071,132976
42.0768,134628
42.0825,133610
42.0882,138092
42.0939,134646
42.0997,138972
42.1054,135682
42.1111,138050
42.1168,138893
42.1225,140531
42.1283,141026
42.134,142229
42.1397,142351
42.1454,140229
42.1511,137959
42.1569,140520
42.1626,139471
42.1683,143628
42.174,143650
42.1797,143567
42.1855,144470
42.1912,145930
42.1969,147573
42.2026,147090
42.2084,147395
42.2141,155509
42.2198,159317
42.2255,173503
42.2313,174773
42.237,170273
42.2427,168049
42.2484,160966
42.2541,159694
42.2599,157723
42.2656,156201
42.2713,158665
42.277,164628
42.2828,157483
42.2885,155542
42.2942,158731
42.2999,157241
42.3056,158760
42.3114,158381
42.3171,166883
42.3228,164243
42.3285,165331
42.3343,165258
42.34,164731
42.3457,162263
42.3514,165718
42.3571,167257
42.3629,166025
42.3686,169500
42.3743,174536
42.38,168102
42.3858,171520
42.3915,176752
42.3972,176388
42.4029,186674
42.4086,184830
42.4143,187799
42.4201,188542
42.4258,190208
42.4315,186808
42.4372,186290
42.443,186406
42.4487,180282
42.4544,179069
42.4601,179730
42.4659,177503
42.4716,178130
42.4773,178688
42.483,178895
42.4887,178384
42.4945,183390
42.5002,187876
42.5059,185620
42.5116,184945
42.5174,187437
42.5231,182027
42.5288,188745
42.5345,184066
42.5402,187999
42.546,190533
42.5517,188307
42.5574,189098
42.5631,196575
42.5689,193460
42.5746,194799
42.5803,199840
42.586,202885
42.5917,200028
42.5975,192912
42.6032,198738
42.6089,197202
42.6146,201601
42.6204,197128
42.6261,203152
42.6318,200489
42.6375,201074
42.6432,204569
42.6489,199716
42.6547,203172
42.6604,201714
42.6661,202174
42.6718,203814
42.6776,206273
42.6833,200625
42.689,203500
42.6947,201599
42.7005,203797
42.7062,208957
42.7119,204759
42.7176,212205
42.7234,208427
42.7291,209922
42.7348,213015
42.7405,214730
42.7462,217236
42.752,215286
42.7577,224967
42.7634,228833
42.7691,235003
42.7749,246385
42.7806,258941
42.7863,261871
42.792,262970
42.7977,271757
42.8035,298142
42.8092,334036
42.8149,332538
42.8206,309636
42.8263,277612
42.8321,259587
42.8378,250160
42.8435,249446
42.8492,247312
42.855,243722
42.8607,243777
42.8664,244618
42.8721,246586
42.8778,246454
42.8836,250404
42.8893,242830
42.895,249110
42.9007,251821
42.9065,251903
42.9122,256036
42.9179,255607
42.9236,261916
42.9293,264018
42.9351,267363
42.9408,270432
42.9465,272922
42.9522,281842
42.958,288186
42.9637,289166
42.9694,291004
42.9751,297215
42.9808,294235
42.9866,288611
42.9923,293975
42.998,294211
43.0037,295720
43.0095,294460
43.0152,288832
43.0209,282479
43.0266,276825
43.0323,277932
43.0381,270285
43.0438,273944
43.0495,263044
43.0552,253944
43.061,259435
43.0667,258481
43.0724,262161
43.0781,254431
43.0838,256986
43.0896,261341
43.0953,260926
43.101,257806
43.1067,256261
43.1125,253671
43.1182,260061
43.1239,260134
43.1296,255520
43.1353,259378
43.1411,264422
43.1468,253761
43.1525,253143
43.1582,255102
43.1639,263699
43.1697,267510
43.1754,273203
43.1811,301409
43.1868,314977
43.1926,316501
43.1983,299612
43.204,279650
43.2097,276623
43.2154,272776
43.2212,270764
43.2269,268161
43.2326,272738
43.2383,271386
43.2441,270527
43.2498,265492
43.2555,274126
43.2612,276339
43.2669,269159
43.2727,269355
43.2784,272904
43.2841,275852
43.2898,293873
43.2955,323984
43.3013,350733
43.307,366621
43.3127,347885
43.3184,326408
43.3242,318473
43.3299,301725
43.3356,285886
43.3413,280154
43.3471,278873
43.3528,270476
43.3585,279394
43.3642,274626
43.3699,271890
43.3757,272780
43.3814,276654
43.3871,272641
43.3928,273636
43.3986,274484
43.4043,279770
43.41,279895
43.4157,281104
43.4214,281423
43.4272,296024
43.4329,293857
43.4386,305366
43.4443,299475
43.4501,296899
43.4558,305204
43.4615,299964
43.4672,309056
43.4729,308863
43.4787,321835
43.4844,331939
43.4901,350730
43.4958,369151
43.5015,386172
43.5073,404079
43.513,410640
43.5187,407099
43.5244,400206
43.5301,390254
43.5359,380902
43.5416,365150
43.5473,356800
43.553,342189
43.5588,335279
43.5645,328439
43.5702,324822
43.5759,319474
43.5817,311008
43.5874,311694
43.5931,307444
43.5988,310600
43.6045,313050
43.6103,324971
43.616,337717
43.6217,363110
43.6274,381859
43.6332,415528
43.6389,446920
43.6446,488302
43.6503,525203
43.656,561323
43.6618,584120
43.6675,582945
43.6732,553538
43.6789,516184
43.6847,482109
43.6904,452956
43.6961,448661
43.7018,442107
43.7075,423137
43.7133,417759
43.719,396306
43.7247,381834
43.7304,381295
43.7362,382505
43.7419,382959
43.7476,388370
43.7533,395523
43.759,402438
43.7647,410907
43.7705,406941
43.7762,395384
43.7819,385179
43.7876,377227
43.7934,361325
43.7991,353012
43.8048,344525
43.8105,341066
43.8163,327482
43.822,323368
43.8277,324906
43.8334,320448
43.8391,323162
43.8449,327915
43.8506,349284
43.8563,399976
43.862,496663
43.8678,602868
43.8735,654702
43.8792,638411
43.8849,553899
43.8906,475634
43.8964,421026
43.9021,397400
43.9078,370754
43.9135,352074
43.9193,342012
43.925,337450
43.9307,324510
43.9364,321414
43.9421,316873
43.9479,316533
43.9536,307543
43.9593,307957
43.965,302933
43.9708,300106
43.9765,299962
43.9822,302839
43.9879,303045
43.9936,298596
43.9994,297018
44.0051,297241
44.0108,290224
44.0165,295093
44.0223,288747
44.028,289600
44.0337,283793
44.0394,289327
44.0451,286417
44.0509,284429
44.0566,283091
44.0623,283499
44.068,277331
44.0738,281201
44.0795,278915
44.0852,274211
44.0909,283611
44.0966,273872
44.1024,278053
44.1081,278971
44.1138,274989
44.1195,272771
44.1253,276354
44.131,276189
44.1367,274874
44.1424,274893
44.1481,271211
44.1539,274555
44.1596,267380
44.1653,276449
44.171,269137
44.1767,270831
44.1825,274273
44.1882,265869
44.1939,266050
44.1996,267595
44.2054,269830
44.2111,267685
44.2168,264279
44.2225,268864
44.2282,269421
44.234,267359
44.2397,267136
44.2454,270434
44.2511,268533
44.2569,272942
44.2626,273987
44.2683,288553
44.274,302550
44.2797,323273
44.2855,334470
44.2912,336487
44.2969,325977
44.3026,309576
44.3084,298741
44.3141,292661
44.3198,288610
44.3255,287524
44.3312,289337
44.337,278110
44.3427,280168
44.3484,282784
44.3541,282515
44.3599,286470
44.3656,284921
44.3713,280140
44.377,277342
44.3827,278252
44.3884,269211
44.3942,271388
44.3999,273688
44.4056,270563
44.4113,271467
44.4171,274962
44.4228,271070
44.4285,270434
44.4342,271722
44.44,276759
44.4457,283903
44.4514,280462
44.4571,287013
44.4629,291710
44.4686,286321
44.4743,288485
44.48,287169
44.4857,295540
44.4915,295266
44.4972,289451
44.5029,285582
44.5086,279364
44.5144,274187
44.5201,271856
44.5258,266353
44.5315,275488
44.5372,266724
44.543,271298
44.5487,267313
44.5544,271533
44.5601,266454
44.5658,268008
44.5716,262700
44.5773,260308
44.583,264682
44.5887,263058
44.5945,269339
44.6002,272729
44.6059,271216
44.6116,279634
44.6173,281157
44.6231,281528
44.6288,285010
44.6345,273303
44.6402,274143
44.6459,265036
44.6517,257548
44.6574,261315
44.6631,259624
44.6688,258474
44.6746,259859
44.6803,252344
44.686,254099
44.6917,255893
44.6975,256746
44.7032,258067
44.7089,248935
44.7146,253040
44.7203,249930
44.7261,252161
44.7318,252784
44.7375,255452
44.7432,252131
44.749,254527
44.7547,250783
44.7604,247519
44.7661,250165
44.7718,253514
44.7776,252793
44.7833,248995
44.789,252055
44.7947,252883
44.8005,252092
44.8062,250145
44.8119,245717
44.8176,246864
44.8233,243398
44.8291,248828
44.8348,247684
44.8405,242785
44.8462,246086
44.852,246412
44.8577,243593
44.8634,245563
44.8691,248833
44.8748,244191
44.8805,245486
44.8863,240441
44.892,243311
44.8977,243203
44.9034,241149
44.9092,245414
44.9149,242369
44.9206,244585
44.9263,245037
44.9321,246720
44.9378,248273
44.9435,242229
44.9492,249892
44.9549,245975
44.9607,241542
44.9664,244872
44.9721,241850
44.9778,248676
44.9836,246880
44.9893,246287
44.995,242793
