D:\MassHunter\GCMS\1\data\Stachys_bullata\FINAL_RUNS\GAV102.D 16 Mar 20  08:18 pm
Start of data points
3.09247,7967
3.09818,7524
3.1039,7936
3.10963,8109
3.11535,7411
3.12107,8003
3.1268,8230
3.13252,8029
3.13823,7896
3.14397,8120
3.14968,7163
3.1554,6727
3.16113,7081
3.16685,7432
3.17257,6584
3.1783,6313
3.18402,6677
3.18973,6916
3.19547,6552
3.20118,6337
3.2069,6445
3.21263,5671
3.21835,5750
3.22407,5717
3.22978,6157
3.23552,5417
3.24123,6410
3.24695,5827
3.25268,6054
3.2584,5726
3.26412,5704
3.26985,5643
3.27557,6053
3.28128,6742
3.28702,6470
3.29273,5587
3.29845,6695
3.30418,5241
3.3099,5938
3.31562,6153
3.32135,7111
3.32707,7089
3.33278,6991
3.33852,6253
3.34423,5868
3.34995,5548
3.35568,5918
3.3614,4971
3.36712,4664
3.37285,5582
3.37857,5214
3.38428,5502
3.39002,4733
3.39573,4767
3.40145,4977
3.40717,5208
3.4129,4823
3.41862,4866
3.42433,4683
3.43007,4635
3.43578,3502
3.4415,3889
3.44723,4443
3.45295,4434
3.45867,4541
3.4644,4289
3.47012,4050
3.47583,4989
3.48157,3680
3.48728,4293
3.493,3552
3.49873,3428
3.50445,4028
3.51017,5269
3.5159,4175
3.52162,3811
3.52733,3643
3.53307,3739
3.53878,3919
3.5445,4321
3.55023,3936
3.55595,3154
3.56167,3799
3.56738,3808
3.57312,4454
3.57883,3653
3.58455,3685
3.59028,3623
3.596,3442
3.60172,3373
3.60745,3687
3.61317,3680
3.61888,4079
3.62462,3414
3.63033,3869
3.63605,3429
3.64178,3502
3.6475,3600
3.65322,3905
3.65895,3571
3.66467,4203
3.67038,3584
3.67612,3900
3.68183,3273
3.68755,3347
3.69328,3386
3.699,3553
3.70472,3075
3.71045,3213
3.71617,2751
3.72188,3231
3.72762,3512
3.73333,3631
3.73905,2768
3.74477,3618
3.7505,3239
3.75622,2972
3.76193,3422
3.76767,3410
3.77338,2740
3.7791,3550
3.78483,2960
3.79055,2880
3.79627,3106
3.802,3462
3.80772,2713
3.81343,4025
3.81917,2913
3.82488,2819
3.8306,3531
3.83633,3475
3.84205,2924
3.84777,3293
3.8535,2953
3.85922,3312
3.86493,2686
3.87067,2958
3.87638,3327
3.8821,2775
3.88783,2996
3.89355,3244
3.89927,2779
3.90498,2723
3.91072,3355
3.91643,3265
3.92215,2773
3.92788,2636
3.9336,2979
3.93932,2622
3.94505,3029
3.95077,2947
3.95648,2589
3.96222,3075
3.96793,3762
3.97365,4214
3.97938,7389
3.9851,10204
3.99082,13156
3.99655,16139
4.00227,15078
4.00798,12372
4.01372,10758
4.01943,9583
4.02515,8123
4.03088,6635
4.0366,5667
4.04232,5410
4.04805,4946
4.05377,4173
4.05948,4515
4.06522,4057
4.07093,3436
4.07665,3088
4.08237,3174
4.0881,3950
4.09382,3347
4.09953,3447
4.10527,2855
4.11098,2666
4.1167,3464
4.12243,3515
4.12815,3019
4.13387,3282
4.1396,3446
4.14532,3195
4.15103,3334
4.15677,2711
4.16248,2192
4.1682,2580
4.17393,2568
4.17965,2442
4.18537,2831
4.1911,2267
4.19682,2658
4.20253,2630
4.20827,2669
4.21398,2551
4.2197,2637
4.22543,2483
4.23115,2009
4.23687,3378
4.2426,2872
4.24832,2466
4.25403,2409
4.25975,2098
4.26548,2584
4.2712,2478
4.27692,1931
4.28265,2375
4.28837,2535
4.29408,2390
4.29982,2167
4.30553,2142
4.31125,2058
4.31698,2572
4.3227,2160
4.32842,1999
4.33415,2121
4.33987,2506
4.34558,2485
4.35132,2635
4.35703,2142
4.36275,2049
4.36848,2212
4.3742,2299
4.37992,2013
4.38565,2099
4.39137,2598
4.39708,2008
4.40282,2276
4.40853,1960
4.41425,2430
4.41998,2643
4.4257,2132
4.43142,2290
4.43713,2166
4.44287,2425
4.44858,1977
4.4543,2306
4.46003,2464
4.46575,2350
4.47147,2773
4.4772,2126
4.48292,2142
4.48863,2270
4.49437,2569
4.50008,2182
4.5058,1888
4.51153,2079
4.51725,2534
4.52297,2063
4.5287,2373
4.53442,1944
4.54013,2179
4.54587,2657
4.55158,2274
4.5573,1856
4.56303,1908
4.56875,2023
4.57447,1919
4.5802,2101
4.58592,2177
4.59163,1978
4.59735,1700
4.60308,1849
4.6088,1449
4.61452,1854
4.62025,1860
4.62597,2169
4.63168,2186
4.63742,1761
4.64313,2302
4.64885,1774
4.65458,2024
4.6603,2208
4.66602,2159
4.67175,2171
4.67747,1941
4.68318,2030
4.68892,2548
4.69463,1773
4.70035,2498
4.70608,2636
4.7118,3306
4.71752,4981
4.72325,10304
4.72897,14351
4.73468,17496
4.74042,16204
4.74613,13639
4.75185,11127
4.75758,9587
4.7633,7788
4.76902,5258
4.77473,4517
4.78047,4716
4.78618,3618
4.7919,3198
4.79763,2665
4.80335,2865
4.80907,2975
4.8148,2223
4.82052,2544
4.82623,2979
4.83197,2450
4.83768,2310
4.8434,2156
4.84913,1883
4.85485,2548
4.86057,2672
4.8663,2409
4.87202,2432
4.87773,2422
4.88347,1850
4.88918,2060
4.8949,1976
4.90063,2040
4.90635,1846
4.91207,2677
4.9178,2483
4.92352,1531
4.92923,1861
4.93497,1801
4.94068,2131
4.9464,1845
4.95212,1673
4.95785,1941
4.96357,2192
4.96928,2875
4.97502,3086
4.98073,3546
4.98645,3041
4.99218,3150
4.9979,3231
5.00362,2552
5.00935,2073
5.01507,1832
5.02078,1242
5.02652,2107
5.03223,1757
5.03795,2273
5.04368,1596
5.0494,2102
5.05512,1600
5.06085,1570
5.06657,1705
5.07228,2030
5.07802,1595
5.08373,1877
5.08945,1628
5.09518,1791
5.1009,1929
5.10662,2005
5.11233,2059
5.11807,1880
5.12378,1882
5.1295,1428
5.13523,1584
5.14095,2277
5.14667,1707
5.1524,2158
5.15812,1946
5.16383,1818
5.16957,1748
5.17528,1940
5.181,1454
5.18673,1767
5.19245,1814
5.19817,1594
5.2039,2052
5.20962,1583
5.21533,1873
5.22107,2218
5.22678,1690
5.2325,1938
5.23823,1923
5.24395,1427
5.24967,2116
5.2554,1586
5.26112,2183
5.26683,2287
5.27257,3059
5.27828,2548
5.284,2942
5.28972,2895
5.29545,2241
5.30117,2551
5.30688,2015
5.31262,2539
5.31833,1761
5.32405,2104
5.32978,1654
5.3355,2068
5.34122,1421
5.34695,1977
5.35267,1869
5.35838,1715
5.36412,1862
5.36983,2032
5.37555,1807
5.38128,1489
5.387,2026
5.39272,1957
5.39845,1641
5.40417,1734
5.40988,1593
5.41562,1547
5.42133,1488
5.42705,1700
5.43278,1723
5.4385,1457
5.44422,1698
5.44995,1519
5.45567,1895
5.46138,1982
5.4671,1381
5.47283,1883
5.47855,1319
5.48427,1367
5.49,1922
5.49572,1568
5.50143,1886
5.50717,1611
5.51288,1336
5.5186,1643
5.52433,1890
5.53005,1869
5.53577,1803
5.5415,1835
5.54722,1677
5.55293,1585
5.55867,1624
5.56438,1549
5.5701,2313
5.57583,2972
5.58155,4738
5.58727,8606
5.593,11070
5.59872,10626
5.60443,10600
5.61017,9250
5.61588,7363
5.6216,5423
5.62733,4216
5.63305,2990
5.63877,2772
5.64448,2406
5.65022,2109
5.65593,1824
5.66165,2032
5.66738,1797
5.6731,1852
5.67882,1982
5.68455,1533
5.69027,1881
5.69598,1972
5.70172,1525
5.70743,1348
5.71315,1474
5.71888,1484
5.7246,1676
5.73032,1785
5.73605,1246
5.74177,2030
5.74748,1549
5.75322,1795
5.75893,1841
5.76465,1398
5.77038,1431
5.7761,1487
5.78182,1514
5.78755,1587
5.79327,1330
5.79898,1894
5.8047,1596
5.81043,1676
5.81615,1536
5.82187,1411
5.8276,1741
5.83332,1628
5.83903,1326
5.84477,1716
5.85048,1354
5.8562,1298
5.86193,1214
5.86765,1346
5.87337,1765
5.8791,1609
5.88482,1394
5.89053,1453
5.89627,1491
5.90198,1715
5.9077,1541
5.91343,1521
5.91915,1590
5.92487,1891
5.9306,1419
5.93632,1844
5.94203,1432
5.94777,1569
5.95348,1260
5.9592,1596
5.96493,1536
5.97065,1405
5.97637,1870
5.98208,1733
5.98782,1589
5.99353,1868
5.99925,1773
6.00498,1487
6.0107,1344
6.01642,1550
6.02215,1244
6.02787,1207
6.03358,1521
6.03932,1828
6.04503,1413
6.05075,990
6.05648,1412
6.0622,1690
6.06792,1539
6.07365,1143
6.07937,1548
6.08508,1590
6.09082,1632
6.09653,1669
6.10225,1771
6.10798,1275
6.1137,1249
6.11942,1582
6.12515,1500
6.13087,1439
6.13658,1523
6.14232,1329
6.14803,1441
6.15375,1490
6.15947,963
6.1652,1277
6.17092,1401
6.17663,1142
6.18237,1430
6.18808,1389
6.1938,1431
6.19953,1342
6.20525,1437
6.21097,1138
6.2167,869
6.22242,1185
6.22813,1204
6.23387,1555
6.23958,1194
6.2453,1042
6.25103,1389
6.25675,2357
6.26247,3156
6.2682,3569
6.27392,3773
6.27963,4078
6.28537,3815
6.29108,2569
6.2968,2425
6.30253,1557
6.30825,1659
6.31397,1993
6.31968,2042
6.32542,1452
6.33113,1630
6.33685,2413
6.34258,3981
6.3483,4739
6.35402,5544
6.35975,7123
6.36547,4945
6.37118,4458
6.37692,3828
6.38263,2949
6.38835,1860
6.39408,2345
6.3998,2195
6.40552,2088
6.41125,1938
6.41697,1434
6.42268,2032
6.42842,1468
6.43413,1640
6.43985,1355
6.44558,1766
6.4513,1066
6.45702,1358
6.46275,1046
6.46847,1150
6.47418,1128
6.47992,1541
6.48563,1275
6.49135,1279
6.49707,1454
6.5028,1271
6.50852,1135
6.51423,1174
6.51997,1434
6.52568,1257
6.5314,1245
6.53713,1331
6.54285,1558
6.54857,1403
6.5543,1529
6.56002,1558
6.56573,1479
6.57147,1076
6.57718,1088
6.5829,912
6.58863,1414
6.59435,1238
6.60007,1176
6.6058,1187
6.61152,1067
6.61723,1273
6.62297,1369
6.62868,958
6.6344,1325
6.64013,1405
6.64585,881
6.65157,1070
6.6573,1123
6.66302,1178
6.66873,1132
6.67445,1382
6.68018,1212
6.6859,1211
6.69162,1438
6.69735,1125
6.70307,945
6.70878,1169
6.71452,1323
6.72023,1242
6.72595,1241
6.73168,862
6.7374,938
6.74312,1123
6.74885,767
6.75457,1374
6.76028,1464
6.76602,1587
6.77173,1827
6.77745,2096
6.78318,1713
6.7889,1753
6.79462,1695
6.80035,1429
6.80607,1322
6.81178,908
6.81752,1463
6.82323,1526
6.82895,1171
6.83467,1511
6.8404,1047
6.84612,1042
6.85183,1385
6.85757,1275
6.86328,1378
6.869,1206
6.87473,1560
6.88045,1139
6.88617,945
6.8919,1142
6.89762,1435
6.90333,1553
6.90907,1136
6.91478,1733
6.9205,1137
6.92623,1496
6.93195,1386
6.93767,1093
6.9434,1246
6.94912,1463
6.95483,1305
6.96057,1345
6.96628,1139
6.972,1150
6.97773,1276
6.98345,1150
6.98917,1274
6.9949,1068
7.00062,1357
7.00633,1392
7.01205,1238
7.01778,1357
7.0235,1452
7.02922,1446
7.03495,1470
7.04067,943
7.04638,1221
7.05212,962
7.05783,1161
7.06355,1213
7.06928,1194
7.075,1345
7.08072,1247
7.08645,1452
7.09217,1330
7.09788,1294
7.10362,979
7.10933,1277
7.11505,1196
7.12078,1178
7.1265,1181
7.13222,937
7.13795,1486
7.14367,1361
7.14938,1061
7.15512,924
7.16083,1468
7.16655,1502
7.17228,1159
7.178,1797
7.18372,1283
7.18943,1491
7.19517,1406
7.20088,1438
7.2066,1303
7.21233,1211
7.21805,1306
7.22377,1081
7.2295,1018
7.23522,1048
7.24093,1125
7.24667,1293
7.25238,1416
7.2581,1422
7.26383,1042
7.26955,1114
7.27527,1235
7.281,1449
7.28672,1269
7.29243,996
7.29817,1184
7.30388,1355
7.3096,1509
7.31533,1221
7.32105,1866
7.32677,1778
7.3325,1035
7.33822,1822
7.34393,1338
7.34967,956
7.35538,1539
7.3611,1265
7.36682,1524
7.37255,1329
7.37827,962
7.38398,1484
7.38972,1319
7.39543,1988
7.40115,1331
7.40688,1461
7.4126,1687
7.41832,1530
7.42405,1944
7.42977,1262
7.43548,1450
7.44122,909
7.44693,1432
7.45265,1758
7.45838,1128
7.4641,1732
7.46982,1379
7.47555,1671
7.48127,1567
7.48698,1202
7.49272,1227
7.49843,1294
7.50415,1370
7.50988,1294
7.5156,1241
7.52132,1297
7.52703,1057
7.53277,1403
7.53848,1162
7.5442,1258
7.54993,1075
7.55565,1553
7.56137,1283
7.5671,1012
7.57282,1390
7.57853,1751
7.58427,1509
7.58998,1579
7.5957,1453
7.60143,1423
7.60715,1426
7.61287,1179
7.6186,1733
7.62432,1390
7.63003,1252
7.63577,1152
7.64148,3185
7.6472,4980
7.65293,8038
7.65865,9922
7.66437,11786
7.6701,13474
7.67582,12450
7.68153,11214
7.68727,7853
7.69298,6141
7.6987,4425
7.70442,3318
7.71015,2089
7.71587,1959
7.72158,1914
7.72732,2005
7.73303,1766
7.73875,1117
7.74448,1160
7.7502,984
7.75592,935
7.76165,850
7.76737,709
7.77308,1177
7.77882,1148
7.78453,1189
7.79025,1253
7.79598,1090
7.8017,1184
7.80742,1231
7.81315,894
7.81887,1135
7.82458,1090
7.83032,1154
7.83603,759
7.84175,1260
7.84748,897
7.8532,1382
7.85892,1052
7.86463,889
7.87037,1078
7.87608,1520
7.8818,1201
7.88753,969
7.89325,1234
7.89897,1549
7.9047,1204
7.91042,1231
7.91613,1206
7.92187,1171
7.92758,1209
7.9333,1582
7.93903,1182
7.94475,1276
7.95047,1262
7.9562,1178
7.96192,1269
7.96763,1544
7.97337,1466
7.97908,1271
7.9848,1298
7.99053,1325
7.99625,1748
8.00197,1577
8.0077,1640
8.01342,1596
8.01913,1789
8.02487,4001
8.03058,5979
8.0363,7812
8.04202,7602
8.04775,6911
8.05347,7977
8.05918,7157
8.06492,4003
8.07063,3619
8.07635,2262
8.08208,1825
8.0878,1333
8.09352,938
8.09925,1105
8.10497,966
8.11068,678
8.11642,857
8.12213,1332
8.12785,764
8.13358,1150
8.1393,873
8.14502,1228
8.15075,1036
8.15647,1163
8.16218,1193
8.16792,1524
8.17363,1161
8.17935,1452
8.18508,1036
8.1908,1233
8.19652,897
8.20225,1269
8.20797,1344
8.21368,1108
8.2194,1372
8.22513,1362
8.23085,1397
8.23657,1625
8.2423,1010
8.24802,1041
8.25373,1166
8.25947,1042
8.26518,1462
8.2709,791
8.27663,1288
8.28235,1806
8.28807,1213
8.2938,1406
8.29952,1238
8.30523,1219
8.31097,1641
8.31668,1298
8.3224,883
8.32813,1220
8.33385,1119
8.33957,1335
8.3453,891
8.35102,1209
8.35673,1159
8.36247,1213
8.36818,1322
8.3739,639
8.37963,821
8.38535,555
8.39107,764
8.39678,1045
8.40252,682
8.40823,631
8.41395,711
8.41968,826
8.4254,703
8.43112,459
8.43685,841
8.44257,855
8.44828,868
8.45402,819
8.45973,973
8.46545,852
8.47118,1248
8.4769,2622
8.48262,3953
8.48835,6739
8.49407,9645
8.49978,12899
8.50552,13966
8.51123,13557
8.51695,11572
8.52268,8938
8.5284,7277
8.53412,5023
8.53985,3968
8.54557,2352
8.55128,1645
8.55702,634
8.56273,528
8.56845,937
8.57417,1094
8.5799,654
8.58562,679
8.59133,699
8.59707,964
8.60278,718
8.6085,461
8.61423,578
8.61995,1004
8.62567,748
8.6314,1143
8.63712,1822
8.64283,5314
8.64857,14478
8.65428,40702
8.66,93838
8.66573,174616
8.67145,285076
8.67717,389363
8.6829,480454
8.68862,493647
8.69433,463156
8.70007,390749
8.70578,306510
8.7115,227917
8.71723,153155
8.72295,97704
8.72867,63043
8.73438,40071
8.74012,24499
8.74583,16330
8.75155,7954
8.75728,4911
8.763,3345
8.76872,1876
8.77445,1854
8.78017,1464
8.78588,1575
8.79162,1061
8.79733,1242
8.80305,1253
8.80878,1005
8.8145,938
8.82022,1303
8.82595,1133
8.83167,1024
8.83738,1068
8.84312,1142
8.84883,941
8.85455,1168
8.86028,989
8.866,1397
8.87172,1175
8.87745,1348
8.88317,1232
8.88888,691
8.89462,925
8.90033,957
8.90605,1387
8.91177,1211
8.9175,1244
8.92322,691
8.92893,1412
8.93467,1228
8.94038,1266
8.9461,896
8.95183,1400
8.95755,1126
8.96327,1374
8.969,1122
8.97472,1268
8.98043,947
8.98617,940
8.99188,1202
8.9976,868
9.00333,507
9.00905,638
9.01477,1144
9.0205,983
9.02622,959
9.03193,717
9.03767,899
9.04338,895
9.0491,969
9.05483,732
9.06055,580
9.06627,855
9.07198,529
9.07772,1282
9.08343,531
9.08915,1010
9.09488,954
9.1006,378
9.10632,784
9.11205,969
9.11777,1152
9.12348,840
9.12922,2253
9.13493,3531
9.14065,4114
9.14638,5700
9.1521,6222
9.15782,5288
9.16355,4181
9.16927,3446
9.17498,2998
9.18072,2495
9.18643,1784
9.19215,1094
9.19788,1097
9.2036,829
9.20932,688
9.21505,970
9.22077,934
9.22648,929
9.23222,1132
9.23793,962
9.24365,696
9.24937,728
9.2551,562
9.26082,996
9.26653,701
9.27227,1028
9.27798,1274
9.2837,735
9.28943,674
9.29515,614
9.30087,602
9.3066,407
9.31232,773
9.31803,951
9.32377,716
9.32948,1056
9.3352,865
9.34093,961
9.34665,809
9.35237,1060
9.3581,1168
9.36382,691
9.36953,733
9.37527,789
9.38098,1017
9.3867,760
9.39243,530
9.39815,650
9.40387,471
9.4096,432
9.41532,464
9.42103,478
9.42675,734
9.43248,316
9.4382,752
9.44392,594
9.44965,721
9.45537,474
9.46108,599
9.46682,774
9.47253,231
9.47825,567
9.48398,423
9.4897,556
9.49542,578
9.50115,736
9.50687,662
9.51258,554
9.51832,982
9.52403,1643
9.52975,2985
9.53548,5633
9.5412,5242
9.54692,6264
9.55265,5585
9.55837,5211
9.56408,4201
9.56982,2876
9.57553,2767
9.58125,2100
9.58698,987
9.5927,1029
9.59842,1005
9.60413,791
9.60987,498
9.61558,510
9.6213,572
9.62703,576
9.63275,531
9.63847,246
9.6442,383
9.64992,520
9.65563,703
9.66137,768
9.66708,627
9.6728,475
9.67853,446
9.68425,508
9.68997,433
9.6957,639
9.70142,673
9.70713,658
9.71287,765
9.71858,725
9.7243,567
9.73003,622
9.73575,254
9.74147,171
9.7472,296
9.75292,785
9.75863,258
9.76435,759
9.77008,675
9.7758,766
9.78152,730
9.78725,436
9.79297,436
9.79868,397
9.80442,465
9.81013,953
9.81585,394
9.82158,542
9.8273,750
9.83302,622
9.83875,509
9.84447,482
9.85018,456
9.85592,854
9.86163,1087
9.86735,2388
9.87308,2325
9.8788,2203
9.88452,2484
9.89025,2118
9.89597,1384
9.90168,1206
9.90742,1134
9.91313,675
9.91885,394
9.92458,807
9.9303,406
9.93602,650
9.94173,204
9.94747,732
9.95318,693
9.9589,1114
9.96463,1736
9.97035,2722
9.97607,4503
9.9818,5788
9.98752,8003
9.99323,8422
9.99897,7900
10.0047,8463
10.0104,10298
10.0161,20018
10.0219,49518
10.0276,117431
10.0333,228190
10.039,372899
10.0447,539298
10.0505,681092
10.0562,728250
10.0619,708620
10.0676,606227
10.0734,459940
10.0791,318622
10.0848,203125
10.0905,120988
10.0962,69130
10.102,37200
10.1077,20135
10.1134,11841
10.1191,6050
10.1249,3451
10.1306,1912
10.1363,1743
10.142,582
10.1477,820
10.1535,440
10.1592,219
10.1649,258
10.1706,658
10.1764,559
10.1821,667
10.1878,266
10.1935,687
10.1992,592
10.205,603
10.2107,2486
10.2164,6095
10.2221,12579
10.2279,20564
10.2336,26689
10.2393,30221
10.245,31063
10.2507,24575
10.2565,18092
10.2622,12408
10.2679,7439
10.2736,4381
10.2793,2854
10.2851,1382
10.2908,937
10.2965,978
10.3022,684
10.308,758
10.3137,723
10.3194,582
10.3251,573
10.3308,194
10.3366,534
10.3423,580
10.348,878
10.3537,963
10.3595,287
10.3652,768
10.3709,601
10.3766,618
10.3823,641
10.3881,821
10.3938,692
10.3995,318
10.4052,401
10.411,416
10.4167,560
10.4224,203
10.4281,353
10.4338,672
10.4396,211
10.4453,617
10.451,845
10.4567,706
10.4625,537
10.4682,416
10.4739,603
10.4796,1019
10.4853,3567
10.4911,5223
10.4968,6174
10.5025,6760
10.5082,7156
10.514,5522
10.5197,4554
10.5254,4014
10.5311,2960
10.5368,2387
10.5426,2112
10.5483,1590
10.554,630
10.5597,547
10.5655,384
10.5712,763
10.5769,1401
10.5826,2874
10.5883,6014
10.5941,11728
10.5998,19868
10.6055,26868
10.6112,34989
10.617,35420
10.6227,31112
10.6284,25561
10.6341,15582
10.6398,11405
10.6456,6000
10.6513,3266
10.657,1244
10.6627,815
10.6684,813
10.6742,242
10.6799,922
10.6856,360
10.6913,166
10.6971,461
10.7028,1128
10.7085,334
10.7142,462
10.7199,429
10.7257,495
10.7314,548
10.7371,181
10.7428,637
10.7486,576
10.7543,510
10.76,645
10.7657,513
10.7714,1042
10.7772,1214
10.7829,1342
10.7886,1828
10.7943,2157
10.8001,1684
10.8058,1365
10.8115,1475
10.8172,1425
10.8229,764
10.8287,554
10.8344,1235
10.8401,397
10.8458,154
10.8516,254
10.8573,590
10.863,659
10.8687,393
10.8744,357
10.8802,456
10.8859,389
10.8916,169
10.8973,1271
10.9031,388
10.9088,653
10.9145,611
10.9202,377
10.9259,298
10.9317,287
10.9374,271
10.9431,618
10.9488,371
10.9546,204
10.9603,888
10.966,2322
10.9717,2520
10.9774,5170
10.9832,7468
10.9889,8069
10.9946,7626
11.0003,6577
11.006,4384
11.0118,3206
11.0175,2246
11.0232,747
11.0289,574
11.0347,600
11.0404,703
11.0461,721
11.0518,363
11.0575,697
11.0633,298
11.069,317
11.0747,658
11.0804,359
11.0862,472
11.0919,432
11.0976,525
11.1033,567
11.109,655
11.1148,300
11.1205,667
11.1262,1905
11.1319,4540
11.1377,8990
11.1434,18685
11.1491,30711
11.1548,43838
11.1605,51697
11.1663,56629
11.172,52488
11.1777,42560
11.1834,32942
11.1892,22230
11.1949,12380
11.2006,7026
11.2063,3196
11.212,1481
11.2178,1443
11.2235,381
11.2292,729
11.2349,587
11.2407,569
11.2464,580
11.2521,190
11.2578,561
11.2635,884
11.2693,495
11.275,545
11.2807,647
11.2864,661
11.2922,663
11.2979,580
11.3036,379
11.3093,898
11.315,479
11.3208,844
11.3265,579
11.3322,277
11.3379,362
11.3436,683
11.3494,471
11.3551,408
11.3608,751
11.3665,764
11.3723,697
11.378,471
11.3837,591
11.3894,630
11.3951,442
11.4009,236
11.4066,185
11.4123,477
11.418,400
11.4238,187
11.4295,399
11.4352,434
11.4409,550
11.4466,272
11.4524,229
11.4581,786
11.4638,433
11.4695,608
11.4753,516
11.481,261
11.4867,498
11.4924,1100
11.4981,1424
11.5039,1661
11.5096,1681
11.5153,2254
11.521,1478
11.5268,2191
11.5325,1319
11.5382,1263
11.5439,1007
11.5496,1968
11.5554,2670
11.5611,3159
11.5668,3530
11.5725,4044
11.5783,3449
11.584,3510
11.5897,2475
11.5954,1935
11.6011,1542
11.6069,1578
11.6126,1453
11.6183,2325
11.624,2942
11.6298,4573
11.6355,5862
11.6412,7594
11.6469,7532
11.6526,5675
11.6584,4828
11.6641,3419
11.6698,1527
11.6755,1684
11.6812,842
11.687,441
11.6927,809
11.6984,859
11.7041,810
11.7099,531
11.7156,606
11.7213,649
11.727,1900
11.7327,3398
11.7385,6363
11.7442,14812
11.7499,28075
11.7556,42083
11.7614,56731
11.7671,65743
11.7728,68585
11.7785,57479
11.7842,45075
11.79,30176
11.7957,22676
11.8014,15890
11.8071,10551
11.8129,8287
11.8186,4451
11.8243,4053
11.83,2577
11.8357,1582
11.8415,837
11.8472,815
11.8529,1020
11.8586,1206
11.8644,1185
11.8701,1426
11.8758,1132
11.8815,1390
11.8872,1444
11.893,1710
11.8987,1037
11.9044,1425
11.9101,2619
11.9159,4287
11.9216,8197
11.9273,11780
11.933,18513
11.9387,18097
11.9445,18687
11.9502,16418
11.9559,14131
11.9616,8779
11.9674,5478
11.9731,4519
11.9788,3966
11.9845,3248
11.9902,2953
11.996,2005
12.0017,2173
12.0074,2184
12.0131,2244
12.0188,1228
12.0246,1339
12.0303,1635
12.036,1785
12.0417,1625
12.0475,1210
12.0532,1660
12.0589,1645
12.0646,1178
12.0703,2352
12.0761,5220
12.0818,13740
12.0875,36104
12.0932,92472
12.099,214170
12.1047,437011
12.1104,745655
12.1161,1096229
12.1218,1376214
12.1276,1532126
12.1333,1453758
12.139,1148492
12.1447,813666
12.1505,477911
12.1562,247587
12.1619,114220
12.1676,47302
12.1733,18028
12.1791,7484
12.1848,4422
12.1905,3333
12.1962,2863
12.202,3305
12.2077,3727
12.2134,4139
12.2191,5517
12.2248,7510
12.2306,9440
12.2363,12435
12.242,13393
12.2477,12012
12.2535,11001
12.2592,9003
12.2649,7438
12.2706,4263
12.2763,3060
12.2821,2044
12.2878,2183
12.2935,2419
12.2992,1392
12.305,2154
12.3107,2515
12.3164,1904
12.3221,1078
12.3278,2043
12.3336,1598
12.3393,1551
12.345,1629
12.3507,1489
12.3564,1632
12.3622,1657
12.3679,1672
12.3736,1612
12.3793,993
12.3851,2222
12.3908,1827
12.3965,1539
12.4022,2704
12.4079,3676
12.4137,8196
12.4194,20257
12.4251,41324
12.4308,71457
12.4366,115362
12.4423,143963
12.448,166703
12.4537,161485
12.4594,134360
12.4652,97183
12.4709,64347
12.4766,35783
12.4823,17285
12.4881,9519
12.4938,4471
12.4995,2647
12.5052,2514
12.5109,1872
12.5167,1905
12.5224,1725
12.5281,2015
12.5338,2058
12.5396,1662
12.5453,2071
12.551,1029
12.5567,1889
12.5624,1796
12.5682,1470
12.5739,1814
12.5796,2086
12.5853,2620
12.5911,3622
12.5968,3574
12.6025,3464
12.6082,2617
12.6139,2286
12.6197,2384
12.6254,2591
12.6311,1996
12.6368,1831
12.6426,2824
12.6483,3030
12.654,3542
12.6597,4653
12.6654,5529
12.6712,6339
12.6769,7025
12.6826,7100
12.6883,7727
12.694,5845
12.6998,3854
12.7055,3446
12.7112,3474
12.7169,3847
12.7227,6619
12.7284,10789
12.7341,13960
12.7398,19760
12.7455,25040
12.7513,24485
12.757,24955
12.7627,17741
12.7684,13837
12.7742,9776
12.7799,5899
12.7856,2881
12.7913,1372
12.797,2048
12.8028,757
12.8085,1662
12.8142,1104
12.8199,1110
12.8257,1668
12.8314,1512
12.8371,1270
12.8428,1429
12.8485,1816
12.8543,1263
12.86,1742
12.8657,1283
12.8714,1144
12.8772,1396
12.8829,1480
12.8886,1719
12.8943,1589
12.9,945
12.9058,2110
12.9115,2365
12.9172,2425
12.9229,2404
12.9287,1993
12.9344,1368
12.9401,1681
12.9458,1492
12.9515,1813
12.9573,1849
12.963,1415
12.9687,1468
12.9744,2340
12.9802,2148
12.9859,2436
12.9916,3603
12.9973,3320
13.003,3131
13.0088,3252
13.0145,2918
13.0202,2049
13.0259,2325
13.0316,1971
13.0374,1675
13.0431,1472
13.0488,1724
13.0545,1310
13.0603,1276
13.066,1473
13.0717,1727
13.0774,1726
13.0831,1864
13.0889,1801
13.0946,1908
13.1003,1751
13.106,2487
13.1118,2388
13.1175,3302
13.1232,4786
13.1289,8822
13.1346,16254
13.1404,28265
13.1461,43113
13.1518,56793
13.1575,63675
13.1633,61335
13.169,50885
13.1747,39528
13.1804,27361
13.1861,16231
13.1919,9644
13.1976,6546
13.2033,5528
13.209,3904
13.2148,4048
13.2205,2760
13.2262,2520
13.2319,2117
13.2376,2294
13.2434,1798
13.2491,2237
13.2548,1573
13.2605,2378
13.2663,1791
13.272,1678
13.2777,1639
13.2834,1959
13.2891,1630
13.2949,1645
13.3006,1765
13.3063,1425
13.312,1588
13.3178,1403
13.3235,1352
13.3292,1729
13.3349,2439
13.3406,1096
13.3464,1311
13.3521,1468
13.3578,1756
13.3635,1589
13.3693,2006
13.375,2605
13.3807,2675
13.3864,3471
13.3921,2881
13.3979,4881
13.4036,4164
13.4093,3024
13.415,2730
13.4207,2247
13.4265,1936
13.4322,1959
13.4379,2161
13.4436,1659
13.4494,1494
13.4551,2575
13.4608,1726
13.4665,1179
13.4722,1685
13.478,1635
13.4837,1392
13.4894,1634
13.4951,1220
13.5009,1601
13.5066,1477
13.5123,1732
13.518,1246
13.5237,1475
13.5295,1156
13.5352,1097
13.5409,1853
13.5466,1663
13.5524,1404
13.5581,989
13.5638,1513
13.5695,1259
13.5752,1367
13.581,1891
13.5867,1525
13.5924,1540
13.5981,1423
13.6039,1371
13.6096,1384
13.6153,1921
13.621,961
13.6267,1469
13.6325,2455
13.6382,2645
13.6439,3300
13.6496,4248
13.6554,5006
13.6611,4591
13.6668,5050
13.6725,4140
13.6782,3201
13.684,3212
13.6897,2489
13.6954,3537
13.7011,2759
13.7069,3165
13.7126,3959
13.7183,3846
13.724,4997
13.7297,4105
13.7355,3668
13.7412,3975
13.7469,3570
13.7526,3260
13.7583,3452
13.7641,3472
13.7698,3479
13.7755,3602
13.7812,2119
13.787,2641
13.7927,2344
13.7984,2383
13.8041,3083
13.8098,3261
13.8156,3072
13.8213,3090
13.827,2738
13.8327,1883
13.8385,2344
13.8442,2180
13.8499,2511
13.8556,2124
13.8613,2280
13.8671,2951
13.8728,2746
13.8785,2654
13.8842,2446
13.89,2404
13.8957,2895
13.9014,2095
13.9071,3137
13.9128,3111
13.9186,2631
13.9243,3581
13.93,2262
13.9357,2386
13.9415,2481
13.9472,2248
13.9529,2788
13.9586,3422
13.9643,3225
13.9701,3368
13.9758,3096
13.9815,3286
13.9872,2837
13.993,1757
13.9987,1990
14.0044,2531
14.0101,1716
14.0158,2082
14.0216,2150
14.0273,2335
14.033,3126
14.0387,4076
14.0445,4725
14.0502,8139
14.0559,8888
14.0616,12820
14.0673,15402
14.0731,15511
14.0788,15971
14.0845,11055
14.0902,9560
14.0959,6419
14.1017,3800
14.1074,2740
14.1131,1916
14.1188,1753
14.1246,1873
14.1303,2117
14.136,4092
14.1417,3583
14.1474,2419
14.1532,3612
14.1589,2721
14.1646,2933
14.1703,1094
14.1761,1703
14.1818,2117
14.1875,1921
14.1932,2406
14.1989,2932
14.2047,1816
14.2104,3080
14.2161,2099
14.2218,1948
14.2276,1629
14.2333,1940
14.239,2614
14.2447,3673
14.2504,5809
14.2562,8159
14.2619,10219
14.2676,11086
14.2733,10674
14.2791,9052
14.2848,7290
14.2905,6244
14.2962,4234
14.3019,3804
14.3077,2507
14.3134,1843
14.3191,2220
14.3248,1651
14.3306,1681
14.3363,1564
14.342,1717
14.3477,815
14.3534,1429
14.3592,1601
14.3649,1581
14.3706,2031
14.3763,2117
14.3821,3531
14.3878,7255
14.3935,11530
14.3992,16594
14.4049,28441
14.4107,31833
14.4164,36917
14.4221,35033
14.4278,28531
14.4335,21442
14.4393,15592
14.445,10512
14.4507,7883
14.4564,5514
14.4622,4144
14.4679,3695
14.4736,2367
14.4793,2814
14.485,2638
14.4908,2176
14.4965,1949
14.5022,2507
14.5079,2104
14.5137,2049
14.5194,1783
14.5251,1944
14.5308,1402
14.5365,1526
14.5423,1825
14.548,2191
14.5537,2141
14.5594,1512
14.5652,1347
14.5709,1432
14.5766,1353
14.5823,1262
14.588,1369
14.5938,992
14.5995,1100
14.6052,1564
14.6109,1465
14.6167,1475
14.6224,984
14.6281,1568
14.6338,1032
14.6395,1513
14.6453,1677
14.651,1710
14.6567,1743
14.6624,2106
14.6682,1337
14.6739,1617
14.6796,1338
14.6853,1328
14.691,1963
14.6968,1154
14.7025,1652
14.7082,1416
14.7139,1333
14.7197,1380
14.7254,1271
14.7311,2554
14.7368,2128
14.7425,1830
14.7483,2409
14.754,2086
14.7597,1387
14.7654,1311
14.7711,2142
14.7769,1931
14.7826,1745
14.7883,1302
14.794,1238
14.7998,1677
14.8055,1342
14.8112,1696
14.8169,1942
14.8226,2372
14.8284,2842
14.8341,4246
14.8398,5829
14.8455,5860
14.8513,5273
14.857,5105
14.8627,3426
14.8684,2827
14.8741,1643
14.8799,1497
14.8856,1524
14.8913,1623
14.897,920
14.9028,1658
14.9085,908
14.9142,2814
14.9199,6693
14.9256,16047
14.9314,33711
14.9371,62709
14.9428,107931
14.9485,163404
14.9543,209424
14.96,229060
14.9657,214196
14.9714,174069
14.9771,120860
14.9829,73406
14.9886,38966
14.9943,17270
15,9329
15.0058,5073
15.0115,2422
15.0172,1947
15.0229,1646
15.0286,1714
15.0344,862
15.0401,1526
15.0458,1941
15.0515,1356
15.0573,1945
15.063,1912
15.0687,2383
15.0744,2681
15.0801,2069
15.0859,1593
15.0916,2066
15.0973,1581
15.103,1245
15.1087,1743
15.1145,1610
15.1202,1283
15.1259,2151
15.1316,1116
15.1374,952
15.1431,1348
15.1488,974
15.1545,1149
15.1602,1444
15.166,1416
15.1717,1097
15.1774,1620
15.1831,1486
15.1889,2136
15.1946,2308
15.2003,2535
15.206,2640
15.2117,3816
15.2175,1599
15.2232,1554
15.2289,1541
15.2346,1930
15.2404,1423
15.2461,1439
15.2518,802
15.2575,1152
15.2632,1516
15.269,1400
15.2747,1198
15.2804,1894
15.2861,1847
15.2919,1614
15.2976,3200
15.3033,4005
15.309,5513
15.3147,7253
15.3205,6461
15.3262,6537
15.3319,5943
15.3376,5849
15.3434,3088
15.3491,2926
15.3548,1950
15.3605,2444
15.3662,2445
15.372,1750
15.3777,1660
15.3834,1272
15.3891,1574
15.3949,986
15.4006,1669
15.4063,1416
15.412,1334
15.4177,1167
15.4235,1223
15.4292,1841
15.4349,2074
15.4406,2284
15.4463,1683
15.4521,1901
15.4578,1520
15.4635,1447
15.4692,855
15.475,1304
15.4807,1196
15.4864,1029
15.4921,1555
15.4978,1178
15.5036,1823
15.5093,1012
15.515,1359
15.5207,1256
15.5265,970
15.5322,1035
15.5379,999
15.5436,1523
15.5493,2100
15.5551,2282
15.5608,1256
15.5665,2097
15.5722,1454
15.578,1372
15.5837,1602
15.5894,646
15.5951,1105
15.6008,1238
15.6066,656
15.6123,1075
15.618,1210
15.6237,1120
15.6295,1372
15.6352,1573
15.6409,873
15.6466,1214
15.6523,1593
15.6581,1048
15.6638,1375
15.6695,1491
15.6752,1787
15.681,1261
15.6867,1909
15.6924,1912
15.6981,1454
15.7038,1424
15.7096,1217
15.7153,1418
15.721,1660
15.7267,782
15.7325,1295
15.7382,1841
15.7439,1190
15.7496,1272
15.7553,1319
15.7611,1617
15.7668,1236
15.7725,561
15.7782,1772
15.784,1979
15.7897,1156
15.7954,2333
15.8011,2839
15.8068,4512
15.8126,4726
15.8183,6552
15.824,11143
15.8297,18440
15.8354,32993
15.8412,52625
15.8469,76983
15.8526,106522
15.8583,126970
15.8641,132747
15.8698,126730
15.8755,95568
15.8812,70143
15.8869,43040
15.8927,22173
15.8984,12168
15.9041,5319
15.9098,3639
15.9156,2114
15.9213,2155
15.927,1974
15.9327,2823
15.9384,4276
15.9442,3821
15.9499,3996
15.9556,3621
15.9613,3189
15.9671,2312
15.9728,1833
15.9785,2150
15.9842,1046
15.9899,1199
15.9957,1039
16.0014,1253
16.0071,1223
16.0128,1458
16.0186,1143
16.0243,1750
16.03,2768
16.0357,3482
16.0414,6531
16.0471,9762
16.0529,15556
16.0586,27597
16.0643,37001
16.07,48442
16.0758,50912
16.0815,43980
16.0872,38136
16.0929,27657
16.0986,18646
16.1044,10963
16.1101,6577
16.1158,4011
16.1215,2933
16.1273,2318
16.133,2130
16.1387,1652
16.1444,1817
16.1502,1560
16.1559,2003
16.1616,1940
16.1673,2299
16.173,3111
16.1788,3433
16.1845,5949
16.1902,8085
16.1959,8960
16.2017,9332
16.2074,7963
16.2131,6507
16.2188,7153
16.2245,7471
16.2303,6760
16.236,5487
16.2417,3741
16.2474,4249
16.2532,3855
16.2589,3251
16.2646,2474
16.2703,2066
16.276,2927
16.2818,2007
16.2875,2718
16.2932,2749
16.2989,2613
16.3046,4034
16.3104,2089
16.3161,4369
16.3218,3038
16.3275,2486
16.3333,1562
16.339,1657
16.3447,1705
16.3504,1429
16.3562,1880
16.3619,2010
16.3676,2230
16.3733,2295
16.379,2165
16.3848,1597
16.3905,1632
16.3962,2002
16.4019,1757
16.4077,1120
16.4134,1623
16.4191,1773
16.4248,1320
16.4305,1176
16.4363,1440
16.442,2046
16.4477,1681
16.4534,2636
16.4592,1949
16.4649,2049
16.4706,3017
16.4763,3517
16.482,3947
16.4877,7328
16.4935,8623
16.4992,10765
16.5049,11048
16.5106,9995
16.5164,9003
16.5221,6773
16.5278,4492
16.5335,3293
16.5392,2207
16.545,2194
16.5507,2545
16.5564,2029
16.5621,2695
16.5679,2987
16.5736,3033
16.5793,3076
16.585,2982
16.5908,3792
16.5965,2194
16.6022,2033
16.6079,1978
16.6136,1477
16.6194,2037
16.6251,1977
16.6308,2802
16.6365,2735
16.6423,3755
16.648,4788
16.6537,8240
16.6594,9593
16.6651,11632
16.6709,12532
16.6766,9827
16.6823,9591
16.688,7729
16.6938,6029
16.6995,3756
16.7052,3044
16.7109,1896
16.7166,1979
16.7223,2019
16.7281,2225
16.7338,2309
16.7395,2320
16.7452,1288
16.751,1413
16.7567,1817
16.7624,1705
16.7681,2246
16.7738,3415
16.7796,4337
16.7853,5276
16.791,5514
16.7967,3414
16.8025,3375
16.8082,3361
16.8139,1802
16.8196,1800
16.8254,1353
16.8311,1337
16.8368,2243
16.8425,1908
16.8482,1252
16.854,1341
16.8597,1473
16.8654,1377
16.8711,1760
16.8769,1484
16.8826,1902
16.8883,1913
16.894,2516
16.8997,2254
16.9055,2503
16.9112,2863
16.9169,2373
16.9226,1633
16.9283,2529
16.9341,3117
16.9398,3719
16.9455,4091
16.9512,4878
16.957,5661
16.9627,6248
16.9684,7365
16.9741,6227
16.9798,6376
16.9856,7306
16.9913,5042
16.997,4850
17.0027,2999
17.0085,2005
17.0142,2652
17.0199,1978
17.0256,1007
17.0314,1714
17.0371,1281
17.0428,1631
17.0485,1731
17.0542,2332
17.06,1997
17.0657,3114
17.0714,5066
17.0771,7466
17.0829,11797
17.0886,14054
17.0943,18612
17.1,20609
17.1057,17803
17.1115,14526
17.1172,11088
17.1229,6132
17.1286,4780
17.1344,3306
17.1401,2317
17.1458,1504
17.1515,1327
17.1572,1391
17.1629,1306
17.1687,1690
17.1744,1524
17.1801,1356
17.1858,1749
17.1916,1335
17.1973,1023
17.203,1976
17.2087,2778
17.2144,3457
17.2202,6843
17.2259,9280
17.2316,13280
17.2373,18485
17.2431,19495
17.2488,19898
17.2545,17098
17.2602,13579
17.266,8791
17.2717,6083
17.2774,4326
17.2831,3716
17.2888,4174
17.2946,6937
17.3003,10725
17.306,17036
17.3117,22108
17.3175,25239
17.3232,27365
17.3289,21527
17.3346,16398
17.3403,12688
17.3461,6860
17.3518,3788
17.3575,2808
17.3632,2317
17.369,2162
17.3747,2179
17.3804,1224
17.3861,1239
17.3918,1834
17.3975,1954
17.4033,2892
17.409,6351
17.4147,9919
17.4204,17946
17.4262,24236
17.4319,27836
17.4376,30824
17.4433,29859
17.4491,23514
17.4548,17026
17.4605,11336
17.4662,6300
17.472,4212
17.4777,2703
17.4834,2001
17.4891,1374
17.4948,1403
17.5006,1019
17.5063,1281
17.512,1499
17.5177,1706
17.5234,1651
17.5292,1080
17.5349,1976
17.5406,2022
17.5463,1620
17.5521,1355
17.5578,1843
17.5635,1843
17.5692,1798
17.5749,1467
17.5807,1789
17.5864,1904
17.5921,2714
17.5978,2089
17.6036,1864
17.6093,2217
17.615,2176
17.6207,2289
17.6264,1956
17.6322,1605
17.6379,2137
17.6436,1974
17.6493,2826
17.655,3422
17.6608,4000
17.6665,4426
17.6722,4635
17.6779,3330
17.6837,3599
17.6894,2561
17.6951,2464
17.7008,1521
17.7066,1952
17.7123,2517
17.718,2276
17.7237,1756
17.7294,1797
17.7352,2484
17.7409,1457
17.7466,1468
17.7523,1582
17.7581,1903
17.7638,2628
17.7695,2709
17.7752,2312
17.7809,2316
17.7867,2002
17.7924,2375
17.7981,1689
17.8038,1640
17.8096,1027
17.8153,1720
17.821,1576
17.8267,1031
17.8324,1412
17.8382,2324
17.8439,2268
17.8496,3060
17.8553,3346
17.861,4389
17.8668,6878
17.8725,9393
17.8782,12721
17.8839,14798
17.8897,18101
17.8954,19367
17.9011,19200
17.9068,19731
17.9125,19863
17.9183,19042
17.924,16817
17.9297,14944
17.9354,12331
17.9412,11842
17.9469,10169
17.9526,8178
17.9583,6746
17.964,6750
17.9698,5093
17.9755,6063
17.9812,3792
17.9869,3215
17.9927,2890
17.9984,2183
18.0041,2574
18.0098,1517
18.0155,1384
18.0213,2917
18.027,3240
18.0327,3952
18.0384,4107
18.0442,4727
18.0499,5074
18.0556,5604
18.0613,4508
18.067,4496
18.0727,4728
18.0785,3614
18.0842,3820
18.0899,3562
18.0956,4373
18.1014,4357
18.1071,4619
18.1128,3738
18.1185,3120
18.1243,3481
18.13,2728
18.1357,2958
18.1414,2222
18.1472,1785
18.1529,1978
18.1586,2152
18.1643,1421
18.17,1597
18.1758,2256
18.1815,1358
18.1872,1269
18.1929,2063
18.1986,1734
18.2044,1138
18.2101,1396
18.2158,2360
18.2215,3021
18.2273,6252
18.233,10151
18.2387,16115
18.2444,24433
18.2501,29320
18.2559,33319
18.2616,34486
18.2673,30266
18.273,23570
18.2788,15123
18.2845,9877
18.2902,6896
18.2959,3374
18.3016,2921
18.3074,1236
18.3131,2683
18.3188,2163
18.3245,1550
18.3302,2348
18.336,2341
18.3417,2230
18.3474,2486
18.3531,2317
18.3589,1803
18.3646,2494
18.3703,2730
18.376,2805
18.3818,2602
18.3875,1189
18.3932,2157
18.3989,2179
18.4046,1868
18.4104,1604
18.4161,2085
18.4218,1128
18.4275,2157
18.4333,2691
18.439,1908
18.4447,1937
18.4504,2208
18.4561,1572
18.4619,1637
18.4676,2319
18.4733,2281
18.479,2776
18.4848,1570
18.4905,1947
18.4962,1675
18.5019,1253
18.5076,1421
18.5134,1454
18.5191,1818
18.5248,1294
18.5305,2072
18.5363,1620
18.542,2810
18.5477,2419
18.5534,2618
18.5591,2450
18.5649,4352
18.5706,3616
18.5763,2316
18.582,2260
18.5877,2257
18.5935,3168
18.5992,3838
18.6049,4590
18.6106,10876
18.6164,19740
18.6221,30524
18.6278,45665
18.6335,57622
18.6392,67666
18.645,67142
18.6507,59744
18.6564,45028
18.6621,30025
18.6679,21108
18.6736,14150
18.6793,10257
18.685,9801
18.6907,9675
18.6965,10427
18.7022,10547
18.7079,10402
18.7136,9325
18.7194,7241
18.7251,6879
18.7308,4691
18.7365,4218
18.7422,3384
18.7479,4527
18.7537,3005
18.7594,2953
18.7651,2905
18.7708,2511
18.7766,2248
18.7823,2425
18.788,2680
18.7937,2851
18.7995,2543
18.8052,2322
18.8109,2223
18.8166,2297
18.8224,2312
18.8281,2632
18.8338,2561
18.8395,3315
18.8452,3160
18.851,2886
18.8567,3519
18.8624,2935
18.8681,3017
18.8739,3165
18.8796,1754
18.8853,2314
18.891,1978
18.8967,2219
18.9025,3128
18.9082,2968
18.9139,3632
18.9196,2737
18.9253,3007
18.9311,3593
18.9368,3634
18.9425,2337
18.9482,2691
18.954,2286
18.9597,1721
18.9654,2226
18.9711,1800
18.9768,1633
18.9826,1442
18.9883,2092
18.994,935
18.9997,982
19.0055,1677
19.0112,2049
19.0169,1882
19.0226,1990
19.0283,2664
19.0341,1413
19.0398,1985
19.0455,3187
19.0512,5991
19.057,14174
19.0627,29057
19.0684,56162
19.0741,103682
19.0798,161610
19.0856,227221
19.0913,270802
19.097,283845
19.1027,269363
19.1085,236020
19.1142,220180
19.1199,235152
19.1256,254640
19.1313,279663
19.1371,276087
19.1428,236789
19.1485,188010
19.1542,132381
19.16,90153
19.1657,68763
19.1714,77679
19.1771,125829
19.1828,230934
19.1885,426799
19.1943,701842
19.2,1058550
19.2057,1442494
19.2114,1800744
19.2172,1946300
19.2229,1951074
19.2286,1696839
19.2343,1271066
19.2401,836897
19.2458,475741
19.2515,243633
19.2572,119006
19.2629,57188
19.2687,29804
19.2744,22087
19.2801,19874
19.2858,24672
19.2916,29007
19.2973,32007
19.303,32058
19.3087,28102
19.3144,25086
19.3202,19632
19.3259,15455
19.3316,10066
19.3373,7727
19.3431,6855
19.3488,6095
19.3545,7478
19.3602,6742
19.3659,8922
19.3717,10427
19.3774,13902
19.3831,15567
19.3888,17413
19.3946,17147
19.4003,15277
19.406,12656
19.4117,11505
19.4174,8527
19.4232,7448
19.4289,5427
19.4346,4972
19.4403,4595
19.4461,4576
19.4518,3878
19.4575,4207
19.4632,3687
19.4689,2955
19.4747,2901
19.4804,3838
19.4861,3669
19.4918,4575
19.4976,4049
19.5033,5344
19.509,4775
19.5147,4804
19.5204,4692
19.5262,4471
19.5319,4677
19.5376,4601
19.5433,4694
19.5491,4584
19.5548,4834
19.5605,4452
19.5662,1257
19.5719,2653
19.5777,2057
19.5834,2570
19.5891,2411
19.5948,3393
19.6005,3183
19.6063,3460
19.612,3587
19.6177,3233
19.6234,3281
19.6291,2740
19.6349,3364
19.6406,3308
19.6463,3650
19.652,4481
19.6578,4231
19.6635,4879
19.6692,4333
19.6749,4047
19.6807,4269
19.6864,3551
19.6921,2978
19.6978,2911
19.7035,3047
19.7093,3556
19.715,3365
19.7207,2371
19.7264,2249
19.7322,3459
19.7379,3308
19.7436,3564
19.7493,3820
19.755,2883
19.7608,3506
19.7665,3337
19.7722,3421
19.7779,2589
19.7837,2030
19.7894,2398
19.7951,2888
19.8008,1931
19.8065,2085
19.8123,1935
19.818,2587
19.8237,2072
19.8294,1451
19.8352,2363
19.8409,3018
19.8466,3255
19.8523,2599
19.858,2679
19.8638,3232
19.8695,3529
19.8752,3551
19.8809,2828
19.8866,2232
19.8924,2719
19.8981,4051
19.9038,3433
19.9095,3201
19.9153,3873
19.921,6221
19.9267,7639
19.9324,10430
19.9381,12735
19.9439,14955
19.9496,15783
19.9553,16459
19.961,12292
19.9668,10655
19.9725,8705
19.9782,7578
19.9839,6440
19.9896,3971
19.9954,4009
20.0011,3322
20.0068,3240
20.0125,3111
20.0183,2486
20.024,2873
20.0297,2554
20.0354,2301
20.0411,2069
20.0469,2618
20.0526,2956
20.0583,3054
20.064,3081
20.0698,5358
20.0755,5244
20.0812,6936
20.0869,11754
20.0926,20906
20.0984,31670
20.1041,49507
20.1098,68032
20.1155,75302
20.1213,79579
20.127,69093
20.1327,56328
20.1384,39605
20.1441,26334
20.1499,16512
20.1556,9220
20.1613,7893
20.167,6106
20.1728,6766
20.1785,7790
20.1842,9289
20.1899,10977
20.1956,11035
20.2014,11664
20.2071,10856
20.2128,9636
20.2185,7136
20.2243,6327
20.23,5256
20.2357,4825
20.2414,4445
20.2471,3658
20.2529,2636
20.2586,3613
20.2643,2728
20.27,2532
20.2757,2898
20.2815,3059
20.2872,4368
20.2929,3774
20.2986,2769
20.3043,2738
20.3101,3133
20.3158,3102
20.3215,3395
20.3272,2829
20.333,2390
20.3387,3008
20.3444,4304
20.3501,3762
20.3559,3472
20.3616,3488
20.3673,3890
20.373,4320
20.3787,5403
20.3845,6649
20.3902,7684
20.3959,7903
20.4016,8675
20.4074,8749
20.4131,7585
20.4188,7107
20.4245,5468
20.4302,4077
20.436,3097
20.4417,3101
20.4474,2853
20.4531,2563
20.4589,3492
20.4646,3611
20.4703,4216
20.476,4046
20.4817,5239
20.4875,5819
20.4932,7543
20.4989,5322
20.5046,4404
20.5104,3508
20.5161,3527
20.5218,2858
20.5275,5742
20.5332,12889
20.539,32410
20.5447,76908
20.5504,169377
20.5561,332460
20.5619,552253
20.5676,795453
20.5733,1021904
20.579,1174239
20.5847,1156586
20.5905,1006685
20.5962,760682
20.6019,474928
20.6076,262094
20.6133,124139
20.6191,54786
20.6248,24378
20.6305,14898
20.6362,10943
20.642,10288
20.6477,9032
20.6534,8172
20.6591,7293
20.6648,6020
20.6706,5537
20.6763,5959
20.682,7311
20.6877,7608
20.6935,9456
20.6992,9579
20.7049,9591
20.7106,8515
20.7163,7340
20.7221,7550
20.7278,5662
20.7335,4898
20.7392,3870
20.7449,3783
20.7507,3931
20.7564,4536
20.7621,3875
20.7678,4489
20.7736,5097
20.7793,6726
20.785,5577
20.7907,5202
20.7965,6265
20.8022,4703
20.8079,4056
20.8136,3679
20.8193,2716
20.8251,2844
20.8308,2650
20.8365,3299
20.8422,2513
20.848,2281
20.8537,2539
20.8594,3880
20.8651,2784
20.8708,3783
20.8766,4970
20.8823,4414
20.888,5019
20.8937,5309
20.8995,4769
20.9052,4600
20.9109,5913
20.9166,6661
20.9223,6156
20.9281,11212
20.9338,15387
20.9395,25390
20.9452,40224
20.9509,61653
20.9567,85042
20.9624,103635
20.9681,119673
20.9738,122683
20.9796,121716
20.9853,105275
20.991,87927
20.9967,67024
21.0024,52200
21.0082,47615
21.0139,46228
21.0196,47913
21.0253,49248
21.0311,45546
21.0368,40539
21.0425,32730
21.0482,23916
21.0539,17565
21.0597,13994
21.0654,10717
21.0711,7472
21.0768,7717
21.0826,5749
21.0883,4807
21.094,4340
21.0997,5337
21.1054,3939
21.1112,3946
21.1169,4140
21.1226,3918
21.1283,4324
21.1341,4628
21.1398,5002
21.1455,4735
21.1512,4292
21.1569,2412
21.1626,3261
21.1684,3577
21.1741,2543
21.1798,3476
21.1856,3300
21.1913,2817
21.197,2922
21.2027,3040
21.2084,3396
21.2142,2069
21.2199,3142
21.2256,2594
21.2313,2690
21.2371,2543
21.2428,3059
21.2485,2328
21.2542,2814
21.2599,2078
21.2657,2205
21.2714,2146
21.2771,3242
21.2828,3882
21.2886,5313
21.2943,4930
21.3,7921
21.3057,8122
21.3114,9006
21.3172,12076
21.3229,14683
21.3286,16034
21.3343,17481
21.34,18977
21.3458,14804
21.3515,10746
21.3572,9272
21.3629,7102
21.3687,5968
21.3744,5266
21.3801,5462
21.3858,4556
21.3915,3704
21.3973,4286
21.403,4226
21.4087,3278
21.4144,4087
21.4202,3476
21.4259,3632
21.4316,2137
21.4373,2975
21.443,4226
21.4488,4205
21.4545,5589
21.4602,6087
21.4659,6977
21.4717,7262
21.4774,7354
21.4831,5290
21.4888,5760
21.4945,3890
21.5003,4559
21.506,3067
21.5117,3251
21.5174,3466
21.5232,2886
21.5289,2607
21.5346,2900
21.5403,2786
21.546,2812
21.5518,3458
21.5575,3502
21.5632,4017
21.5689,2845
21.5747,2996
21.5804,4042
21.5861,4591
21.5918,4303
21.5975,3209
21.6033,3236
21.609,2784
21.6147,2465
21.6204,2598
21.6262,2002
21.6319,2715
21.6376,2923
21.6433,2018
21.649,2443
21.6548,2236
21.6605,2183
21.6662,2736
21.6719,3053
21.6776,3669
21.6834,3216
21.6891,4329
21.6948,4164
21.7005,3396
21.7063,3837
21.712,3140
21.7177,3901
21.7234,2633
21.7291,3245
21.7349,2064
21.7406,3091
21.7463,2755
21.752,3037
21.7578,3132
21.7635,3428
21.7692,3137
21.7749,2398
21.7806,1885
21.7864,2940
21.7921,2598
21.7978,2272
21.8035,2244
21.8093,3065
21.815,2742
21.8207,1801
21.8264,3577
21.8321,3329
21.8379,3381
21.8436,4326
21.8493,4114
21.855,5301
21.8607,7728
21.8665,10237
21.8722,9247
21.8779,11629
21.8836,11743
21.8894,10377
21.8951,9449
21.9008,8282
21.9065,7120
21.9123,6973
21.918,6608
21.9237,6004
21.9294,5618
21.9351,4828
21.9409,3783
21.9466,3509
21.9523,3606
21.958,3194
21.9638,2270
21.9695,3220
21.9752,3645
21.9809,2886
21.9866,3001
21.9924,2825
21.9981,3179
22.0038,2972
22.0095,2514
22.0152,4500
22.021,4039
22.0267,5685
22.0324,6689
22.0381,8041
22.0439,10346
22.0496,11516
22.0553,11824
22.061,12456
22.0667,9658
22.0725,8548
22.0782,5459
22.0839,5629
22.0896,4868
22.0954,4582
22.1011,4047
22.1068,4020
22.1125,4241
22.1182,3488
22.124,3860
22.1297,4967
22.1354,6059
22.1411,7544
22.1469,8857
22.1526,11029
22.1583,13557
22.164,16551
22.1697,16913
22.1755,16565
22.1812,13817
22.1869,11463
22.1926,9808
22.1984,6980
22.2041,5267
22.2098,4817
22.2155,5608
22.2212,5724
22.227,5545
22.2327,4897
22.2384,6899
22.2441,6622
22.2499,6014
22.2556,5078
22.2613,5149
22.267,4271
22.2727,4246
22.2784,3456
22.2842,3441
22.2899,4427
22.2956,6059
22.3013,8037
22.3071,10022
22.3128,12329
22.3185,14102
22.3242,13210
22.33,13086
22.3357,11140
22.3414,8468
22.3471,5764
22.3528,4794
22.3586,3139
22.3643,3579
22.37,3948
22.3757,3764
22.3815,2604
22.3872,3215
22.3929,4239
22.3986,6837
22.4043,10869
22.4101,17276
22.4158,23755
22.4215,31963
22.4272,36751
22.433,37093
22.4387,34845
22.4444,30658
22.4501,21105
22.4558,14882
22.4616,10606
22.4673,6360
22.473,4861
22.4787,3511
22.4845,2484
22.4902,3572
22.4959,4020
22.5016,4957
22.5073,5558
22.5131,5724
22.5188,6651
22.5245,6826
22.5302,6240
22.536,6692
22.5417,7239
22.5474,5252
22.5531,5967
22.5588,3975
22.5646,4553
22.5703,4099
22.576,5107
22.5817,4049
22.5875,4586
22.5932,3683
22.5989,3886
22.6046,4154
22.6103,4349
22.6161,5017
22.6218,4811
22.6275,4031
22.6332,4354
22.639,3728
22.6447,3782
22.6504,4382
22.6561,3094
22.6618,3498
22.6676,3072
22.6733,2798
22.679,3088
22.6847,2712
22.6904,3583
22.6962,3382
22.7019,3846
22.7076,3568
22.7133,3447
22.7191,3148
22.7248,2900
22.7305,3344
22.7362,2939
22.7419,3087
22.7477,2883
22.7534,3128
22.7591,4066
22.7648,4508
22.7706,5057
22.7763,6306
22.782,6925
22.7877,8090
22.7934,7284
22.7992,8394
22.8049,5382
22.8106,7330
22.8163,5852
22.8221,9143
22.8278,13630
22.8335,22866
22.8392,37406
22.8449,63170
22.8507,90098
22.8564,89458
22.8621,99291
22.8678,92903
22.8736,81495
22.8793,59203
22.885,42355
22.8907,29062
22.8964,20888
22.9022,17400
22.9079,12893
22.9136,8659
22.9193,5137
22.9251,3061
22.9308,1880
22.9365,1754
22.9422,1304
22.9479,1671
22.9537,1786
22.9594,1380
22.9651,1322
22.9708,1143
22.9766,1748
22.9823,1583
22.988,1162
22.9937,950
22.9994,1331
23.0052,1368
23.0109,2155
23.0166,1974
23.0223,2145
23.028,1467
23.0338,1705
23.0395,2834
23.0452,3176
23.0509,2916
23.0567,2299
23.0624,3262
23.0681,3137
23.0738,3327
23.0795,4958
23.0853,4998
23.091,3883
23.0967,2426
23.1024,2968
23.1082,1606
23.1139,1106
23.1196,1527
23.1253,889
23.131,1029
23.1368,1710
23.1425,912
23.1482,1365
23.1539,1189
23.1597,1269
23.1654,902
23.1711,970
23.1768,1829
23.1825,2851
23.1883,2548
23.194,2968
23.1997,4878
23.2054,9758
23.2112,15053
23.2169,29962
23.2226,42611
23.2283,59534
23.234,69177
23.2398,65241
23.2455,61634
23.2512,55421
23.2569,45029
23.2627,34425
23.2684,27653
23.2741,17807
23.2798,17465
23.2855,17139
23.2913,16416
23.297,14956
23.3027,10455
23.3084,4345
23.3142,3953
23.3199,1919
23.3256,1837
23.3313,1462
23.337,1461
23.3428,1005
23.3485,885
23.3542,515
23.3599,985
23.3656,1430
23.3714,719
23.3771,792
23.3828,1198
23.3885,1220
23.3943,863
23.4,1284
23.4057,1299
23.4114,1469
23.4171,944
23.4229,1282
23.4286,1181
23.4343,1094
23.44,1066
23.4458,995
23.4515,1600
23.4572,1102
23.4629,977
23.4686,1099
23.4744,1490
23.4801,1604
23.4858,657
23.4915,1204
23.4973,839
23.503,1408
23.5087,1051
23.5144,1807
23.5201,1582
23.5259,752
23.5316,525
23.5373,572
23.543,1607
23.5488,433
23.5545,462
23.5602,1461
23.5659,1413
23.5716,836
23.5774,1631
23.5831,1543
23.5888,1564
23.5945,1431
23.6003,1953
23.606,4234
23.6117,5705
23.6174,7340
23.6231,10236
23.6289,11103
23.6346,9915
23.6403,8768
23.646,9193
23.6518,8537
23.6575,6793
23.6632,5478
23.6689,4039
23.6746,2599
23.6804,2235
23.6861,973
23.6918,727
23.6975,1029
23.7032,559
23.709,726
23.7147,584
23.7204,579
23.7261,729
23.7319,1013
23.7376,979
23.7433,657
23.749,1005
23.7547,1103
23.7605,403
23.7662,561
23.7719,591
23.7776,375
23.7834,622
23.7891,1087
23.7948,527
23.8005,989
23.8062,747
23.812,838
23.8177,1035
23.8234,839
23.8291,1163
23.8348,581
23.8406,1326
23.8463,1145
23.852,1039
23.8577,897
23.8635,1477
23.8692,1258
23.8749,1389
23.8806,964
23.8864,966
23.8921,814
23.8978,1026
23.9035,963
23.9092,2599
23.915,3498
23.9207,5082
23.9264,5919
23.9321,8523
23.9379,9171
23.9436,8025
23.9493,7693
23.955,5433
23.9607,3548
23.9665,3317
23.9722,2881
23.9779,4000
23.9836,4418
23.9894,5516
23.9951,6260
24.0008,6534
24.0065,6454
24.0122,6093
24.018,6079
24.0237,5109
24.0294,5246
24.0351,6237
24.0409,9127
24.0466,12548
24.0523,15513
24.058,18140
24.0637,16970
24.0695,16333
24.0752,12858
24.0809,8563
24.0866,5651
24.0923,3181
24.0981,1606
24.1038,1930
24.1095,808
24.1152,1953
24.121,1259
24.1267,2070
24.1324,3007
24.1381,4395
24.1438,3778
24.1496,6009
24.1553,5968
24.161,5919
24.1667,6025
24.1725,4556
24.1782,3944
24.1839,4035
24.1896,3471
24.1953,3355
24.2011,3563
24.2068,3889
24.2125,3782
24.2182,3224
24.224,2856
24.2297,3098
24.2354,4032
24.2411,6279
24.2468,8079
24.2525,9995
24.2583,11591
24.264,14760
24.2697,16632
24.2755,18310
24.2812,18611
24.2869,20185
24.2926,20232
24.2983,18029
24.3041,14915
24.3098,11428
24.3155,9396
24.3212,8491
24.327,6234
24.3327,5199
24.3384,4520
24.3441,3720
24.3498,2940
24.3556,3206
24.3613,3177
24.367,2172
24.3727,2784
24.3785,2968
24.3842,3361
24.3899,3753
24.3956,5317
24.4013,7002
24.4071,6549
24.4128,8010
24.4185,6810
24.4242,10162
24.4299,15414
24.4357,23106
24.4414,34867
24.4471,48895
24.4528,58593
24.4586,62826
24.4643,55535
24.47,49210
24.4757,37008
24.4814,24507
24.4872,16461
24.4929,12550
24.4986,8834
24.5043,5240
24.5101,5088
24.5158,5015
24.5215,5777
24.5272,3848
24.5329,5279
24.5387,5668
24.5444,5612
24.5501,6287
24.5558,7004
24.5616,7183
24.5673,7798
24.573,6025
24.5787,5637
24.5844,5251
24.5902,3587
24.5959,3824
24.6016,3125
24.6073,3136
24.6131,3901
24.6188,5774
24.6245,4983
24.6302,6473
24.6359,6489
24.6417,6555
24.6474,7306
24.6531,7248
24.6588,5574
24.6646,5700
24.6703,3640
24.676,2935
24.6817,2542
24.6874,2183
24.6932,1692
24.6989,2661
24.7046,3898
24.7103,2700
24.7161,3306
24.7218,3951
24.7275,2869
24.7332,1944
24.7389,1541
24.7447,1630
24.7504,1085
24.7561,1818
24.7618,2476
24.7675,3431
24.7733,4121
24.779,6007
24.7847,6641
24.7904,8607
24.7962,8603
24.8019,6101
24.8076,5878
24.8133,5662
24.819,3647
24.8248,3122
24.8305,2579
24.8362,1655
24.8419,3044
24.8477,2862
24.8534,3358
24.8591,3820
24.8648,4250
24.8705,3929
24.8763,3184
24.882,2387
24.8877,3401
24.8934,2552
24.8992,3341
24.9049,2522
24.9106,2626
24.9163,2672
24.922,2482
24.9278,2062
24.9335,1629
24.9392,1676
24.9449,1292
24.9507,1013
24.9564,1352
24.9621,1458
24.9678,1747
24.9735,1609
24.9793,3524
24.985,6234
24.9907,9531
24.9964,13276
25.0022,19324
25.0079,22598
25.0136,24970
25.0193,22323
25.025,16947
25.0308,14474
25.0365,10789
25.0422,6721
25.0479,4127
25.0537,4956
25.0594,6872
25.0651,12890
25.0708,24833
25.0765,42276
25.0823,65975
25.088,92557
25.0937,117006
25.0994,127062
25.1051,125313
25.1109,120375
25.1166,87399
25.1223,60853
25.128,38767
25.1338,21157
25.1395,12070
25.1452,5387
25.1509,2662
25.1566,2553
25.1624,2141
25.1681,1851
25.1738,2478
25.1795,2776
25.1853,4066
25.191,3845
25.1967,4096
25.2024,3350
25.2081,3606
25.2139,2951
25.2196,3556
25.2253,1705
25.231,2081
25.2368,2030
25.2425,2514
25.2482,3128
25.2539,4040
25.2596,4567
25.2654,8068
25.2711,8361
25.2768,7192
25.2825,8472
25.2883,7577
25.294,6447
25.2997,5233
25.3054,9261
25.3111,11009
25.3169,16056
25.3226,24677
25.3283,34525
25.334,41132
25.3398,43457
25.3455,42706
25.3512,36063
25.3569,25101
25.3626,17287
25.3684,9586
25.3741,4413
25.3798,2844
25.3855,2635
25.3913,1517
25.397,1509
25.4027,1591
25.4084,1656
25.4141,1809
25.4199,2416
25.4256,1570
25.4313,2654
25.437,2560
25.4427,3299
25.4485,3358
25.4542,3340
25.4599,1916
25.4656,1863
25.4714,2636
25.4771,2468
25.4828,3045
25.4885,3729
25.4942,3444
25.5,4373
25.5057,3371
25.5114,4344
25.5171,3365
25.5229,4546
25.5286,3432
25.5343,2157
25.54,1790
25.5457,2850
25.5515,3460
25.5572,4579
25.5629,6968
25.5686,6445
25.5744,6958
25.5801,7580
25.5858,9329
25.5915,9530
25.5972,12451
25.603,12320
25.6087,13077
25.6144,15337
25.6201,15341
25.6259,13705
25.6316,11155
25.6373,10759
25.643,8220
25.6487,9778
25.6545,11609
25.6602,13288
25.6659,14747
25.6716,17911
25.6774,19745
25.6831,18546
25.6888,13618
25.6945,10608
25.7002,8735
25.706,5024
25.7117,2832
25.7174,3046
25.7231,2302
25.7289,1585
25.7346,2760
25.7403,3160
25.746,1596
25.7517,2131
25.7575,1859
25.7632,2722
25.7689,1198
25.7746,1628
25.7803,1514
25.7861,1180
25.7918,1250
25.7975,2003
25.8032,2383
25.809,1510
25.8147,1563
25.8204,1612
25.8261,2338
25.8318,2555
25.8376,4721
25.8433,5635
25.849,5214
25.8547,5201
25.8605,5624
25.8662,4185
25.8719,2926
25.8776,2727
25.8833,1973
25.8891,2464
25.8948,2249
25.9005,2382
25.9062,1843
25.912,1586
25.9177,2245
25.9234,2145
25.9291,3340
25.9348,4397
25.9406,4454
25.9463,4273
25.952,5499
25.9577,5247
25.9635,4690
25.9692,3910
25.9749,4468
25.9806,3092
25.9863,3369
25.9921,3134
25.9978,3005
26.0035,2553
26.0092,2994
26.015,2855
26.0207,3176
26.0264,4401
26.0321,3569
26.0378,4452
26.0436,4046
26.0493,3733
26.055,2742
26.0607,2609
26.0665,2544
26.0722,820
26.0779,1683
26.0836,1746
26.0893,2080
26.0951,2416
26.1008,2600
26.1065,2545
26.1122,2667
26.1179,2438
26.1237,2141
26.1294,2343
26.1351,2075
26.1408,1967
26.1466,2081
26.1523,1189
26.158,1766
26.1637,1385
26.1694,2628
26.1752,3250
26.1809,4017
26.1866,2422
26.1923,3586
26.1981,3330
26.2038,3550
26.2095,3830
26.2152,3715
26.2209,3360
26.2267,2962
26.2324,2999
26.2381,2330
26.2438,2940
26.2496,2817
26.2553,1629
26.261,1517
26.2667,813
26.2724,1380
26.2782,1314
26.2839,2211
26.2896,1129
26.2953,2856
26.3011,5915
26.3068,14715
26.3125,36350
26.3182,69283
26.3239,135781
26.3297,238084
26.3354,362886
26.3411,526826
26.3468,682313
26.3526,782121
26.3583,812397
26.364,711698
26.3697,556753
26.3754,370378
26.3812,217704
26.3869,119308
26.3926,58758
26.3983,28787
26.4041,16754
26.4098,12682
26.4155,12201
26.4212,10414
26.4269,8925
26.4327,10037
26.4384,9695
26.4441,9485
26.4498,8242
26.4555,8532
26.4613,9521
26.467,9761
26.4727,13152
26.4784,14346
26.4842,15059
26.4899,15525
26.4956,14917
26.5013,16561
26.507,14351
26.5128,13598
26.5185,12081
26.5242,9517
26.5299,8567
26.5357,7812
26.5414,7706
26.5471,7390
26.5528,5778
26.5585,7544
26.5643,6210
26.57,6572
26.5757,7239
26.5814,7444
26.5872,10165
26.5929,10670
26.5986,11117
26.6043,10100
26.61,11370
26.6158,11172
26.6215,18405
26.6272,29026
26.6329,51165
26.6387,88860
26.6444,145062
26.6501,219913
26.6558,293572
26.6615,357414
26.6673,354045
26.673,314518
26.6787,260772
26.6844,185471
26.6902,119392
26.6959,70924
26.7016,40794
26.7073,26665
26.713,17600
26.7188,13970
26.7245,12088
26.7302,10303
26.7359,9161
26.7417,9385
26.7474,10180
26.7531,9135
26.7588,11252
26.7645,13456
26.7703,15678
26.776,14085
26.7817,14432
26.7874,13084
26.7932,11327
26.7989,10743
26.8046,10853
26.8103,10236
26.816,11621
26.8218,11311
26.8275,13156
26.8332,11855
26.8389,11134
26.8446,11233
26.8504,12998
26.8561,15041
26.8618,18458
26.8675,20394
26.8733,23158
26.879,24535
26.8847,23997
26.8904,22066
26.8961,18798
26.9019,15975
26.9076,12554
26.9133,10352
26.919,10589
26.9248,7517
26.9305,7950
26.9362,6999
26.9419,5840
26.9476,6168
26.9534,5491
26.9591,4739
26.9648,4913
26.9705,4551
26.9763,5729
26.982,5518
26.9877,7053
26.9934,6670
26.9991,6426
27.0049,7437
27.0106,10047
27.0163,13621
27.022,20725
27.0278,28857
27.0335,34166
27.0392,40559
27.0449,41453
27.0506,41845
27.0564,35903
27.0621,29508
27.0678,20771
27.0735,14613
27.0793,9989
27.085,6410
27.0907,6513
27.0964,5925
27.1021,5851
27.1079,6488
27.1136,6152
27.1193,5886
27.125,5362
27.1308,6251
27.1365,7065
27.1422,7769
27.1479,9096
27.1536,13174
27.1594,20673
27.1651,30602
27.1708,42358
27.1765,54638
27.1822,62778
27.188,68480
27.1937,64660
27.1994,55334
27.2051,46334
27.2109,37933
27.2166,30852
27.2223,27296
27.228,25226
27.2337,24091
27.2395,25346
27.2452,25191
27.2509,25395
27.2566,21015
27.2624,18329
27.2681,12421
27.2738,12771
27.2795,9462
27.2852,8390
27.291,7804
27.2967,8479
27.3024,8460
27.3081,8495
27.3139,8017
27.3196,9113
27.3253,8602
27.331,9514
27.3367,8746
27.3425,9535
27.3482,11962
27.3539,12126
27.3596,13604
27.3654,15802
27.3711,16461
27.3768,15154
27.3825,13646
27.3882,14459
27.394,12869
27.3997,11984
27.4054,8743
27.4111,8045
27.4169,8490
27.4226,6781
27.4283,7014
27.434,5694
27.4397,7102
27.4455,6370
27.4512,8716
27.4569,8111
27.4626,9746
27.4684,10035
27.4741,12028
27.4798,12424
27.4855,13170
27.4912,14967
27.497,14305
27.5027,13936
27.5084,12993
27.5141,11337
27.5198,12661
27.5256,10829
27.5313,10222
27.537,9599
27.5427,6717
27.5485,7099
27.5542,7034
27.5599,4901
27.5656,7561
27.5713,7859
27.5771,7078
27.5828,7935
27.5885,7883
27.5942,6554
27.6,7775
27.6057,6677
27.6114,6812
27.6171,6005
27.6228,7031
27.6286,7620
27.6343,8075
27.64,8759
27.6457,9562
27.6515,8162
27.6572,8136
27.6629,8690
27.6686,7180
27.6743,7652
27.6801,8012
27.6858,10495
27.6915,15149
27.6972,17473
27.703,22738
27.7087,26069
27.7144,31320
27.7201,31664
27.7258,26296
27.7316,20963
27.7373,16929
27.743,13320
27.7487,11348
27.7545,9558
27.7602,9151
27.7659,9372
27.7716,7826
27.7773,9661
27.7831,9679
27.7888,11601
27.7945,11657
27.8002,11863
27.806,10346
27.8117,11976
27.8174,14578
27.8231,15192
27.8288,12862
27.8346,14337
27.8403,15893
27.846,13716
27.8517,13583
27.8574,10804
27.8632,8379
27.8689,10263
27.8746,8517
27.8803,8220
27.8861,8720
27.8918,8737
27.8975,6890
27.9032,7461
27.9089,7635
27.9147,6837
27.9204,7621
27.9261,7554
27.9318,7691
27.9376,7566
27.9433,8493
27.949,10087
27.9547,9907
27.9604,10275
27.9662,10841
27.9719,11033
27.9776,10355
27.9833,10557
27.9891,8317
27.9948,7234
28.0005,7357
28.0062,6978
28.0119,6642
28.0177,6034
28.0234,6606
28.0291,7567
28.0348,6672
28.0406,9802
28.0463,12124
28.052,14630
28.0577,18032
28.0634,22128
28.0692,26296
28.0749,29787
28.0806,29044
28.0863,28253
28.0921,23811
28.0978,20360
28.1035,17487
28.1092,14388
28.1149,12609
28.1207,11700
28.1264,9374
28.1321,9917
28.1378,9406
28.1436,9713
28.1493,10233
28.155,9163
28.1607,9217
28.1664,8312
28.1722,8588
28.1779,7992
28.1836,10180
28.1893,9167
28.195,8859
28.2008,10276
28.2065,11322
28.2122,10833
28.2179,13095
28.2237,12024
28.2294,12057
28.2351,12124
28.2408,12330
28.2465,12911
28.2523,13090
28.258,15592
28.2637,22739
28.2694,28406
28.2752,33218
28.2809,40143
28.2866,43701
28.2923,40690
28.298,37022
28.3038,32912
28.3095,25794
28.3152,21166
28.3209,15483
28.3267,12872
28.3324,10760
28.3381,9810
28.3438,12588
28.3495,12822
28.3553,14257
28.361,15505
28.3667,13650
28.3724,10738
28.3782,12291
28.3839,11176
28.3896,10368
28.3953,9266
28.401,8374
28.4068,5874
28.4125,6789
28.4182,6908
28.4239,6207
28.4297,7356
28.4354,6488
28.4411,6238
28.4468,8349
28.4525,7625
28.4583,8377
28.464,8625
28.4697,8126
28.4754,6654
28.4812,6686
28.4869,5829
28.4926,5223
28.4983,5289
28.504,4919
28.5098,6028
28.5155,7097
28.5212,8001
28.5269,11123
28.5326,12378
28.5384,11722
28.5441,13599
28.5498,14902
28.5555,12034
28.5613,13256
28.567,10388
28.5727,10311
28.5784,9914
28.5841,9019
28.5899,8717
28.5956,7328
28.6013,5924
28.607,8527
28.6128,6808
28.6185,6700
28.6242,6824
28.6299,5311
28.6356,6409
28.6414,6270
28.6471,5744
28.6528,6415
28.6585,6614
28.6643,6537
28.67,6174
28.6757,8765
28.6814,8325
28.6871,9687
28.6929,10131
28.6986,12768
28.7043,15874
28.71,16061
28.7158,19044
28.7215,20563
28.7272,24395
28.7329,29454
28.7386,36288
28.7444,46384
28.7501,53688
28.7558,58980
28.7615,59343
28.7673,53031
28.773,49638
28.7787,42676
28.7844,36786
28.7901,30262
28.7959,24809
28.8016,22761
28.8073,18503
28.813,16356
28.8188,16154
28.8245,14217
28.8302,13802
28.8359,13387
28.8416,13524
28.8474,14551
28.8531,16626
28.8588,16846
28.8645,15506
28.8702,16385
28.876,15328
28.8817,14630
28.8874,11420
28.8931,10918
28.8989,8984
28.9046,9239
28.9103,7156
28.916,6231
28.9217,5946
28.9275,7480
28.9332,6241
28.9389,6056
28.9446,6274
28.9504,4700
28.9561,5629
28.9618,3940
28.9675,5184
28.9732,4315
28.979,5001
28.9847,6434
28.9904,6657
28.9961,7957
29.0019,10737
29.0076,14438
29.0133,18366
29.019,22099
29.0247,26829
29.0305,29723
29.0362,29303
29.0419,29539
29.0476,27647
29.0534,27186
29.0591,22955
29.0648,20304
29.0705,19024
29.0762,18181
29.082,15213
29.0877,12860
29.0934,10892
29.0991,11800
29.1049,11400
29.1106,11029
29.1163,13109
29.122,14455
29.1277,15142
29.1335,14020
29.1392,13513
29.1449,15171
29.1506,19171
29.1564,23133
29.1621,26994
29.1678,31657
29.1735,36291
29.1792,36711
29.185,36321
29.1907,34089
29.1964,30711
29.2021,27278
29.2078,25318
29.2136,29418
29.2193,32448
29.225,35547
29.2307,39829
29.2365,38507
29.2422,34070
29.2479,30486
29.2536,23385
29.2593,20020
29.2651,16803
29.2708,14527
29.2765,12608
29.2822,10921
29.288,11730
29.2937,12853
29.2994,12759
29.3051,10841
29.3108,13952
29.3166,10614
29.3223,10499
29.328,9023
29.3337,9621
29.3395,9329
29.3452,8764
29.3509,8172
29.3566,7945
29.3623,7187
29.3681,7857
29.3738,7861
29.3795,7516
29.3852,6655
29.391,6842
29.3967,6134
29.4024,6443
29.4081,6751
29.4138,7137
29.4196,7632
29.4253,7210
29.431,8517
29.4367,8420
29.4425,7432
29.4482,6951
29.4539,7801
29.4596,7219
29.4653,6389
29.4711,6622
29.4768,7584
29.4825,7838
29.4882,9017
29.494,12046
29.4997,19785
29.5054,29129
29.5111,38685
29.5168,52654
29.5226,61201
29.5283,68370
29.534,72263
29.5397,68776
29.5455,60680
29.5512,52013
29.5569,41826
29.5626,33003
29.5683,28302
29.5741,25235
29.5798,24176
29.5855,21156
29.5912,20570
29.5969,19231
29.6027,16976
29.6084,15483
29.6141,16465
29.6198,17499
29.6256,16196
29.6313,17182
29.637,19218
29.6427,17516
29.6484,15224
29.6542,15333
29.6599,11863
29.6656,11536
29.6713,8744
29.6771,8943
29.6828,7343
29.6885,8027
29.6942,7828
29.6999,9486
29.7057,7747
29.7114,7799
29.7171,8098
29.7228,9559
29.7286,7802
29.7343,8684
29.74,9655
29.7457,10584
29.7514,10346
29.7572,10229
29.7629,8397
29.7686,8254
29.7743,7049
29.7801,7162
29.7858,6376
29.7915,7001
29.7972,5525
29.8029,5837
29.8087,4999
29.8144,6805
29.8201,4450
29.8258,5017
29.8316,6228
29.8373,5170
29.843,4106
29.8487,4238
29.8544,4612
29.8602,4189
29.8659,4362
29.8716,4525
29.8773,4861
29.8831,5240
29.8888,6362
29.8945,6901
29.9002,7749
29.9059,7967
29.9117,9155
29.9174,10432
29.9231,12134
29.9288,13629
29.9345,16230
29.9403,20919
29.946,26497
29.9517,34798
29.9574,43767
29.9632,51030
29.9689,60076
29.9746,67530
29.9803,70879
29.986,68952
29.9918,67571
29.9975,59486
30.0032,52705
30.0089,41347
30.0147,33309
30.0204,27252
30.0261,22387
30.0318,17035
30.0375,15357
30.0433,14212
30.049,12973
30.0547,12475
30.0604,13103
30.0662,12849
30.0719,13315
30.0776,11183
30.0833,11357
30.089,10102
30.0948,8982
30.1005,9289
30.1062,9642
30.1119,9309
30.1177,10721
30.1234,8493
30.1291,9640
30.1348,9404
30.1405,8162
30.1463,8750
30.152,8586
30.1577,9810
30.1634,7980
30.1692,8719
30.1749,9398
30.1806,8784
30.1863,8967
30.192,9224
30.1978,9158
30.2035,10875
30.2092,12181
30.2149,10936
30.2207,12482
30.2264,11713
30.2321,11736
30.2378,9254
30.2435,8663
30.2493,7076
30.255,8296
30.2607,7177
30.2664,7581
30.2721,10247
30.2779,12870
30.2836,18349
30.2893,25874
30.295,36956
30.3008,44777
30.3065,54087
30.3122,58412
30.3179,63166
30.3236,66327
30.3294,59036
30.3351,53680
30.3408,48815
30.3465,41139
30.3523,35408
30.358,32908
30.3637,28066
30.3694,26585
30.3751,24803
30.3809,21824
30.3866,17871
30.3923,18630
30.398,15595
30.4038,15904
30.4095,13060
30.4152,12884
30.4209,11821
30.4266,13101
30.4324,12628
30.4381,12108
30.4438,13613
30.4495,14053
30.4553,12553
30.461,13113
30.4667,12452
30.4724,13123
30.4781,13697
30.4839,15676
30.4896,14500
30.4953,13560
30.501,13271
30.5068,15506
30.5125,14371
30.5182,12532
30.5239,11072
30.5296,11199
30.5354,9226
30.5411,9024
30.5468,9688
30.5525,9991
30.5583,9967
30.564,10364
30.5697,10535
30.5754,10469
30.5811,9540
30.5869,11414
30.5926,12136
30.5983,11157
30.604,9772
30.6097,10439
30.6155,11884
30.6212,9148
30.6269,9445
30.6326,10047
30.6384,10087
30.6441,10152
30.6498,10312
30.6555,12979
30.6612,13088
30.667,16134
30.6727,15157
30.6784,16469
30.6841,18433
30.6899,26194
30.6956,38863
30.7013,62849
30.707,97591
30.7127,170684
30.7185,275166
30.7242,401676
30.7299,564609
30.7356,751111
30.7414,964771
30.7471,1214744
30.7528,1497270
30.7585,1795578
30.7642,2045421
30.77,2339629
30.7757,2674670
30.7814,2907732
30.7871,3030894
30.7929,3025620
30.7986,2667375
30.8043,1869934
30.81,1047730
30.8157,504539
30.8215,249525
30.8272,155459
30.8329,119512
30.8386,103197
30.8444,91249
30.8501,86175
30.8558,82003
30.8615,75423
30.8672,68326
30.873,64870
30.8787,60971
30.8844,58941
30.8901,57147
30.8959,53429
30.9016,49461
30.9073,50768
30.913,48055
30.9187,49172
30.9245,46342
30.9302,46397
30.9359,44417
30.9416,45576
30.9473,46289
30.9531,45925
30.9588,43734
30.9645,43456
30.9702,42570
30.976,42907
30.9817,41327
30.9874,38302
30.9931,35150
30.9988,34890
31.0046,32327
31.0103,33249
31.016,30008
31.0217,30339
31.0275,30876
31.0332,27722
31.0389,28900
31.0446,28344
31.0503,27960
31.0561,27361
31.0618,25776
31.0675,25529
31.0732,25092
31.079,25510
31.0847,27723
31.0904,24128
31.0961,22612
31.1018,22195
31.1076,22842
31.1133,23226
31.119,24251
31.1247,24733
31.1305,27091
31.1362,31551
31.1419,46272
31.1476,73153
31.1533,122600
31.1591,202549
31.1648,298990
31.1705,413436
31.1762,509289
31.182,583377
31.1877,605362
31.1934,552316
31.1991,451938
31.2048,345957
31.2106,237048
31.2163,160006
31.222,108310
31.2277,72321
31.2335,52883
31.2392,42573
31.2449,34534
31.2506,31624
31.2563,32275
31.2621,29040
31.2678,28476
31.2735,27326
31.2792,29034
31.2849,28657
31.2907,25921
31.2964,25208
31.3021,24143
31.3078,22642
31.3136,22141
31.3193,21786
31.325,19422
31.3307,19332
31.3364,23669
31.3422,23390
31.3479,25192
31.3536,30211
31.3593,38313
31.3651,42855
31.3708,48029
31.3765,51381
31.3822,55008
31.3879,51558
31.3937,50582
31.3994,43359
31.4051,40264
31.4108,36977
31.4166,33790
31.4223,31559
31.428,27859
31.4337,27125
31.4394,24388
31.4452,22010
31.4509,20572
31.4566,18360
31.4623,17784
31.4681,17213
31.4738,14278
31.4795,15102
31.4852,14432
31.4909,13993
31.4967,15027
31.5024,14044
31.5081,13449
31.5138,11852
31.5196,12497
31.5253,13264
31.531,14765
31.5367,12063
31.5424,12204
31.5482,13230
31.5539,14325
31.5596,15745
31.5653,14466
31.5711,15254
31.5768,16778
31.5825,15805
31.5882,15306
31.5939,13690
31.5997,14179
31.6054,12865
31.6111,13340
31.6168,12919
31.6225,14410
31.6283,14431
31.634,16629
31.6397,18725
31.6454,18219
31.6512,20603
31.6569,21053
31.6626,22489
31.6683,22222
31.674,21695
31.6798,22043
31.6855,20692
31.6912,20166
31.6969,20606
31.7027,21023
31.7084,22509
31.7141,28843
31.7198,41011
31.7255,67742
31.7313,122082
31.737,220816
31.7427,392917
31.7484,647644
31.7542,994469
31.7599,1474373
31.7656,1942310
31.7713,2461686
31.777,3251617
31.7828,3967064
31.7885,4657459
31.7942,5472966
31.7999,6165002
31.8057,6839921
31.8114,7045153
31.8171,6572045
31.8228,5345037
31.8285,3095614
31.8343,1338860
31.84,514265
31.8457,225783
31.8514,129946
31.8572,98441
31.8629,82321
31.8686,72512
31.8743,68170
31.88,61683
31.8858,53829
31.8915,50876
31.8972,46525
31.9029,43789
31.9087,39916
31.9144,37450
31.9201,37214
31.9258,38025
31.9315,34559
31.9373,34880
31.943,34108
31.9487,31873
31.9544,31996
31.9602,27873
31.9659,28252
31.9716,26988
31.9773,26254
31.983,27274
31.9888,24585
31.9945,22798
32.0002,22881
32.0059,22996
32.0116,18516
32.0174,19974
32.0231,19836
32.0288,20034
32.0345,20190
32.0403,21059
32.046,21305
32.0517,21295
32.0574,21318
32.0631,21794
32.0689,25728
32.0746,21869
32.0803,24234
32.086,23737
32.0917,22560
32.0975,22218
32.1032,20511
32.1089,21159
32.1146,19294
32.1204,18655
32.1261,21105
32.1318,22103
32.1375,23590
32.1433,27587
32.149,28915
32.1547,31137
32.1604,29517
32.1661,30342
32.1718,27379
32.1776,26308
32.1833,22484
32.189,20114
32.1947,18089
32.2005,16657
32.2062,15284
32.2119,15690
32.2176,15912
32.2234,13895
32.2291,14635
32.2348,16228
32.2405,16656
32.2463,15431
32.252,18507
32.2577,18429
32.2634,17648
32.2691,17210
32.2749,15876
32.2806,14861
32.2863,15701
32.292,15699
32.2978,16746
32.3035,16741
32.3092,19756
32.3149,20721
32.3206,20402
32.3263,22588
32.3321,22173
32.3378,21836
32.3435,21239
32.3492,19716
32.355,18103
32.3607,16815
32.3664,16605
32.3721,15774
32.3779,14827
32.3836,13714
32.3893,14465
32.395,17223
32.4007,17517
32.4065,20165
32.4122,22981
32.4179,27994
32.4236,31684
32.4293,36223
32.4351,36962
32.4408,36902
32.4465,34414
32.4522,28696
32.458,25973
32.4637,20241
32.4694,17777
32.4751,18641
32.4808,18518
32.4866,17361
32.4923,17832
32.498,17799
32.5037,17449
32.5095,17898
32.5152,18498
32.5209,18270
32.5266,17604
32.5324,17933
32.5381,19281
32.5438,18664
32.5495,17718
32.5552,18468
32.5609,19556
32.5667,18952
32.5724,19578
32.5781,20926
32.5838,20054
32.5896,22996
32.5953,23091
32.601,24870
32.6067,27646
32.6125,29785
32.6182,33754
32.6239,36616
32.6296,41034
32.6354,42130
32.6411,45677
32.6468,46159
32.6525,45916
32.6582,46146
32.664,44537
32.6697,44546
32.6754,47205
32.6811,51559
32.6868,55099
32.6926,60139
32.6983,59463
32.704,61713
32.7097,58413
32.7154,52694
32.7212,48222
32.7269,44515
32.7326,36497
32.7383,31760
32.7441,27876
32.7498,23023
32.7555,19675
32.7612,19592
32.767,18550
32.7727,20268
32.7784,19666
32.7841,22292
32.7898,21907
32.7956,22677
32.8013,22493
32.807,20822
32.8127,18766
32.8184,19186
32.8242,19281
32.8299,15763
32.8356,14391
32.8413,16068
32.8471,14923
32.8528,15242
32.8585,15735
32.8642,14722
32.87,14903
32.8757,13680
32.8814,14752
32.8871,13857
32.8928,12575
32.8986,12194
32.9043,10203
32.91,10945
32.9157,10135
32.9215,9960
32.9272,10022
32.9329,8702
32.9386,10804
32.9443,11586
32.95,11684
32.9558,12162
32.9615,15750
32.9672,17264
32.9729,21832
32.9787,23446
32.9844,25056
32.9901,28116
32.9958,27346
33.0016,27613
33.0073,30780
33.013,33193
33.0187,34660
33.0244,35440
33.0302,30749
33.0359,28545
33.0416,23951
33.0473,20122
33.053,17886
33.0588,15526
33.0645,14292
33.0702,14894
33.0759,16022
33.0817,15773
33.0874,16124
33.0931,18941
33.0988,19367
33.1046,20508
33.1103,21062
33.116,24034
33.1217,23536
33.1274,25533
33.1332,24725
33.1389,25807
33.1446,22497
33.1503,22351
33.1561,20377
33.1618,17978
33.1675,18395
33.1732,19212
33.1789,18947
33.1846,19139
33.1904,20616
33.1961,19435
33.2018,18985
33.2075,19508
33.2133,19592
33.219,18641
33.2247,20144
33.2304,20712
33.2362,20148
33.2419,19109
33.2476,17859
33.2533,17501
33.2591,15660
33.2648,14534
33.2705,13546
33.2762,12778
33.2819,11784
33.2876,10200
33.2934,11166
33.2991,9829
33.3048,11042
33.3105,10148
33.3163,10162
33.322,12335
33.3277,13074
33.3334,11312
33.3391,14078
33.3449,14026
33.3506,17571
33.3563,19742
33.362,26677
33.3678,33958
33.3735,41269
33.3792,45303
33.3849,48989
33.3907,50858
33.3964,45169
33.4021,41169
33.4078,32742
33.4135,28081
33.4193,24914
33.425,19260
33.4307,20305
33.4364,19387
33.4421,19188
33.4479,17639
33.4536,18309
33.4593,14987
33.465,13689
33.4708,12381
33.4765,10431
33.4822,10986
33.4879,11428
33.4937,12460
33.4994,13603
33.5051,18626
33.5108,22528
33.5165,30128
33.5223,41462
33.528,50256
33.5337,60605
33.5394,69197
33.5452,68803
33.5509,67837
33.5566,55779
33.5623,45593
33.568,36307
33.5737,31333
33.5795,27315
33.5852,24492
33.5909,20460
33.5966,19983
33.6024,20027
33.6081,17109
33.6138,17491
33.6195,16041
33.6253,15322
33.631,15851
33.6367,15695
33.6424,16463
33.6482,20659
33.6539,21015
33.6596,23543
33.6653,26357
33.671,30534
33.6767,27210
33.6825,27258
33.6882,25743
33.6939,25331
33.6996,25649
33.7054,21837
33.7111,21245
33.7168,21940
33.7225,22017
33.7283,20542
33.734,19799
33.7397,19005
33.7454,17585
33.7511,17619
33.7569,16826
33.7626,18567
33.7683,18867
33.774,18837
33.7798,18705
33.7855,17446
33.7912,17836
33.7969,17315
33.8026,14949
33.8084,16283
33.8141,15462
33.8198,17172
33.8255,17351
33.8312,17890
33.837,18201
33.8427,16940
33.8484,18283
33.8541,15151
33.8599,15350
33.8656,14611
33.8713,15496
33.877,13578
33.8828,13344
33.8885,12201
33.8942,13281
33.8999,12340
33.9056,12310
33.9113,11885
33.9171,10904
33.9228,10926
33.9285,11300
33.9342,12953
33.94,12810
33.9457,13332
33.9514,14428
33.9571,15615
33.9629,17388
33.9686,18074
33.9743,17712
33.98,17614
33.9858,15081
33.9915,13198
33.9972,10393
34.0029,9877
34.0086,9076
34.0144,8817
34.0201,8268
34.0258,7513
34.0315,9007
34.0372,8995
34.043,8340
34.0487,8630
34.0544,8503
34.0601,9147
34.0658,8417
34.0716,7565
34.0773,7827
34.083,7553
34.0887,6910
34.0945,6325
34.1002,7786
34.1059,6913
34.1116,7366
34.1174,6061
34.1231,7028
34.1288,7914
34.1345,6799
34.1402,7956
34.146,10134
34.1517,9167
34.1574,9343
34.1631,9510
34.1688,9242
34.1746,9921
34.1803,9328
34.186,9893
34.1917,10053
34.1975,7313
34.2032,7119
34.2089,7215
34.2146,6676
34.2204,5643
34.2261,7328
34.2318,7513
34.2375,6323
34.2432,7840
34.249,7947
34.2547,6550
34.2604,7891
34.2661,7988
34.2719,7079
34.2776,7597
34.2833,8008
34.289,6640
34.2947,7425
34.3004,7887
34.3062,8183
34.3119,7803
34.3176,8338
34.3233,6793
34.3291,8365
34.3348,7887
34.3405,8364
34.3462,7510
34.352,7947
34.3577,9414
34.3634,11769
34.3691,12117
34.3749,14587
34.3806,14875
34.3863,15168
34.392,14996
34.3977,13965
34.4034,14271
34.4092,12106
34.4149,12566
34.4206,13905
34.4263,15008
34.4321,16144
34.4378,19609
34.4435,25050
34.4492,31188
34.4549,38239
34.4607,43394
34.4664,46267
34.4721,44819
34.4778,41033
34.4836,32749
34.4893,24082
34.495,16491
34.5007,13159
34.5065,11333
34.5122,7847
34.5179,6174
34.5236,6861
34.5293,7099
34.5351,7403
34.5408,7810
34.5465,6576
34.5522,6405
34.5579,6468
34.5637,6899
34.5694,6827
34.5751,6730
34.5808,6099
34.5866,6633
34.5923,6697
34.598,6973
34.6037,7053
34.6095,5652
34.6152,6558
34.6209,5538
34.6266,6899
34.6323,5314
34.6381,4946
34.6438,6627
34.6495,5424
34.6552,6254
34.661,5996
34.6667,6146
34.6724,5538
34.6781,6863
34.6838,5343
34.6895,5218
34.6953,6698
34.701,5482
34.7067,6453
34.7124,5684
34.7182,5981
34.7239,6844
34.7296,7855
34.7353,5702
34.7411,7340
34.7468,7505
34.7525,7285
34.7582,6704
34.7639,6337
34.7697,6726
34.7754,5743
34.7811,6212
34.7868,5539
34.7925,5199
34.7983,5658
34.804,6413
34.8097,5480
34.8154,5684
34.8212,5176
34.8269,5923
34.8326,4961
34.8383,6589
34.8441,5779
34.8498,5992
34.8555,6198
34.8612,5475
34.8669,5301
34.8727,5590
34.8784,5242
34.8841,5576
34.8898,4539
34.8956,5496
34.9013,6138
34.907,4709
34.9127,5302
34.9184,5775
34.9241,5379
34.9299,5552
34.9356,5824
34.9413,5607
34.947,7340
34.9528,6212
34.9585,6853
34.9642,6999
34.9699,6337
34.9757,6692
34.9814,5597
34.9871,5782
34.9928,6784
34.9986,5011
35.0043,5987
35.01,6454
35.0157,5786
35.0214,5445
35.0271,5979
35.0329,5829
35.0386,6672
35.0443,5424
35.05,6719
35.0558,6803
35.0615,6552
35.0672,5144
35.0729,5699
35.0787,6481
35.0844,5394
35.0901,6175
35.0958,5932
35.1015,6262
35.1073,6567
35.113,5846
35.1187,5651
35.1244,5202
35.1302,5928
35.1359,5278
35.1416,6358
35.1473,6414
35.153,4852
35.1588,5826
35.1645,5565
35.1702,7260
35.1759,6763
35.1817,6601
35.1874,7829
35.1931,7587
35.1988,7570
35.2045,7787
35.2103,8653
35.216,8153
35.2217,7653
35.2274,8936
35.2332,9007
35.2389,8883
35.2446,8936
35.2503,9172
35.256,9125
35.2617,9817
35.2675,9699
35.2732,10050
35.2789,8870
35.2846,9518
35.2904,8680
35.2961,9118
35.3018,7329
35.3075,8784
35.3133,7282
35.319,7119
35.3247,7099
35.3304,6761
35.3362,6254
35.3419,6550
35.3476,6052
35.3533,5351
35.359,5226
35.3648,6519
35.3705,5274
35.3762,5869
35.3819,5017
35.3877,5179
35.3934,5089
35.3991,4688
35.4048,5297
35.4105,7568
35.4163,6049
35.422,5882
35.4277,5652
35.4334,6501
35.4391,5125
35.4449,5280
35.4506,5011
35.4563,6555
35.462,5325
35.4678,6366
35.4735,5687
35.4792,5687
35.4849,6452
35.4906,5554
35.4964,5629
35.5021,6322
35.5078,6533
35.5135,5549
35.5193,7749
35.525,7542
35.5307,6817
35.5364,7181
35.5421,7465
35.5479,7863
35.5536,7917
35.5593,7442
35.565,6974
35.5708,6567
35.5765,6647
35.5822,7167
35.5879,6960
35.5936,6203
35.5994,6395
35.6051,8276
35.6108,5973
35.6165,7238
35.6223,7206
35.628,6807
35.6337,6240
35.6394,6504
35.6451,6634
35.6508,7231
35.6566,6498
35.6623,5126
35.668,6491
35.6737,7192
35.6795,8049
35.6852,7621
35.6909,6830
35.6966,7584
35.7024,6901
35.7081,6792
35.7138,7461
35.7195,5632
35.7253,6403
35.731,6245
35.7367,4783
35.7424,7818
35.7481,7884
35.7539,5932
35.7596,6335
35.7653,4829
35.771,5852
35.7767,6197
35.7825,5296
35.7882,5074
35.7939,6495
35.7996,6971
35.8054,6598
35.8111,8623
35.8168,5635
35.8225,6671
35.8282,7093
35.834,6176
35.8397,6335
35.8454,6848
35.8511,5754
35.8569,7509
35.8626,5905
35.8683,6701
35.874,7089
35.8797,5733
35.8855,7167
35.8912,6985
35.8969,7769
35.9026,7811
35.9083,7485
35.9141,6222
35.9198,7123
35.9255,8074
35.9312,7546
35.937,7559
35.9427,8479
35.9484,8095
35.9541,8360
35.9599,9139
35.9656,9194
35.9713,8795
35.977,8503
35.9827,8951
35.9885,8166
35.9942,8040
35.9999,7961
36.0056,7766
36.0114,7176
36.0171,7268
36.0228,7266
36.0285,6304
36.0342,6518
36.04,6823
36.0457,6540
36.0514,7986
36.0571,7503
36.0629,9542
36.0686,10684
36.0743,10597
36.08,9771
36.0857,10383
36.0915,9347
36.0972,9522
36.1029,7955
36.1086,8859
36.1143,7656
36.1201,8799
36.1258,8614
36.1315,8020
36.1372,9206
36.1429,9157
36.1487,12924
36.1544,13033
36.1601,15401
36.1658,16834
36.1716,18087
36.1773,16586
36.183,16618
36.1887,14440
36.1945,12486
36.2002,10238
36.2059,8660
36.2116,7075
36.2173,7429
36.2231,7080
36.2288,6788
36.2345,5922
36.2402,6929
36.246,7579
36.2517,6956
36.2574,6265
36.2631,6799
36.2688,7097
36.2746,8307
36.2803,7876
36.286,7805
36.2917,8516
36.2975,7608
36.3032,7973
36.3089,8461
36.3146,7623
36.3203,6859
36.3261,7653
36.3318,5468
36.3375,7524
36.3432,5554
36.349,7572
36.3547,7187
36.3604,7314
36.3661,7463
36.3718,8056
36.3775,6468
36.3833,5738
36.389,8332
36.3947,8449
36.4004,7703
36.4062,7370
36.4119,9622
36.4176,8826
36.4233,6265
36.4291,7169
36.4348,6985
36.4405,7822
36.4462,8355
36.4519,9479
36.4577,10532
36.4634,10849
36.4691,11939
36.4748,12979
36.4806,13660
36.4863,9629
36.492,9810
36.4977,10075
36.5034,10029
36.5092,9917
36.5149,9425
36.5206,9435
36.5263,7764
36.5321,8029
36.5378,7683
36.5435,7933
36.5492,9954
36.5549,10290
36.5607,10566
36.5664,13162
36.5721,12710
36.5778,14695
36.5836,14417
36.5893,12687
36.595,11426
36.6007,11377
36.6064,10024
36.6122,6851
36.6179,6858
36.6236,7109
36.6293,6530
36.6351,6016
36.6408,6907
36.6465,7052
36.6522,8513
36.6579,9059
36.6637,12014
36.6694,17012
36.6751,27855
36.6808,40533
36.6866,64939
36.6923,91058
36.698,119367
36.7037,143531
36.7094,155504
36.7152,147955
36.7209,123310
36.7266,96079
36.7323,70247
36.7381,49700
36.7438,32868
36.7495,23065
36.7552,19128
36.7609,15120
36.7666,14229
36.7724,13148
36.7781,17533
36.7838,20119
36.7895,25473
36.7953,30942
36.801,35121
36.8067,38040
36.8124,42306
36.8182,37892
36.8239,33633
36.8296,31190
36.8353,25676
36.841,21109
36.8468,18733
36.8525,16905
36.8582,15770
36.8639,12409
36.8697,14606
36.8754,12048
36.8811,12880
36.8868,10645
36.8925,12105
36.8983,11842
36.904,10874
36.9097,9949
36.9154,9690
36.9212,11440
36.9269,10181
36.9326,11294
36.9383,9963
36.944,10761
36.9498,9612
36.9555,10245
36.9612,10892
36.9669,14350
36.9727,14933
36.9784,19592
36.9841,24371
36.9898,31274
36.9955,33738
37.0012,39626
37.007,41334
37.0127,39298
37.0184,36726
37.0241,33188
37.0299,27117
37.0356,24661
37.0413,22178
37.047,21457
37.0528,19649
37.0585,17538
37.0642,16199
37.0699,14945
37.0757,12232
37.0814,12371
37.0871,13480
37.0928,12292
37.0985,14149
37.1043,12897
37.11,9462
37.1157,11524
37.1214,8823
37.1271,10296
37.1329,9465
37.1386,10904
37.1443,11309
37.15,10342
37.1558,11053
37.1615,10413
37.1672,11556
37.1729,11745
37.1786,11044
37.1844,9749
37.1901,10856
37.1958,9768
37.2015,10229
37.2073,10660
37.213,10337
37.2187,9214
37.2244,9317
37.2301,9576
37.2359,9917
37.2416,10907
37.2473,11421
37.253,11594
37.2587,10589
37.2645,10542
37.2702,9953
37.2759,10023
37.2816,11033
37.2874,10064
37.2931,12178
37.2988,11394
37.3045,12744
37.3103,13174
37.316,11571
37.3217,12092
37.3274,11294
37.3331,9420
37.3389,9967
37.3446,9137
37.3503,9017
37.356,8459
37.3618,8620
37.3675,7841
37.3732,7773
37.3789,7796
37.3846,9083
37.3904,8607
37.3961,8491
37.4018,11331
37.4075,7754
37.4133,8143
37.419,9381
37.4247,9293
37.4304,9688
37.4361,10312
37.4419,9390
37.4476,12362
37.4533,12381
37.459,14773
37.4648,14348
37.4705,18280
37.4762,17169
37.4819,18009
37.4876,16157
37.4934,16273
37.4991,14175
37.5048,13566
37.5105,13567
37.5162,12599
37.522,13002
37.5277,13031
37.5334,12537
37.5391,11674
37.5449,10623
37.5506,11159
37.5563,11723
37.562,10778
37.5677,9914
37.5735,10456
37.5792,11315
37.5849,9691
37.5906,10181
37.5964,11002
37.6021,9645
37.6078,9977
37.6135,9267
37.6192,8889
37.625,10791
37.6307,9794
37.6364,10264
37.6421,11170
37.6478,13448
37.6536,17153
37.6593,18415
37.665,20250
37.6707,22261
37.6765,25403
37.6822,26985
37.6879,26811
37.6936,28374
37.6994,29840
37.7051,31193
37.7108,27785
37.7165,26683
37.7222,24943
37.728,22166
37.7337,18226
37.7394,18796
37.7451,17174
37.7509,15032
37.7566,13327
37.7623,10455
37.768,11104
37.7737,12497
37.7795,12480
37.7852,14553
37.7909,20444
37.7966,26714
37.8024,44128
37.8081,69065
37.8138,105420
37.8195,150685
37.8252,206035
37.831,259203
37.8367,296050
37.8424,312045
37.8481,285943
37.8538,251964
37.8596,204095
37.8653,152860
37.871,106581
37.8767,71715
37.8824,49666
37.8882,35551
37.8939,26198
37.8996,22699
37.9053,18940
37.9111,16033
37.9168,16771
37.9225,13428
37.9282,14757
37.934,14565
37.9397,14169
37.9454,14550
37.9511,14267
37.9568,12663
37.9626,11537
37.9683,11843
37.974,13588
37.9797,12319
37.9855,14070
37.9912,13491
37.9969,15573
38.0026,14478
38.0083,15189
38.0141,14862
38.0198,15774
38.0255,19115
38.0312,20436
38.037,25080
38.0427,38414
38.0484,57047
38.0541,87883
38.0598,139866
38.0656,222148
38.0713,330739
38.077,465149
38.0827,612387
38.0885,720870
38.0942,755003
38.0999,729908
38.1056,648372
38.1113,533006
38.117,423037
38.1228,324902
38.1285,259845
38.1342,232862
38.1399,220698
38.1457,223256
38.1514,217227
38.1571,220792
38.1628,200234
38.1686,173308
38.1743,138999
38.18,111729
38.1857,85743
38.1914,67594
38.1972,53619
38.2029,45623
38.2086,40844
38.2143,37759
38.2201,36244
38.2258,32936
38.2315,32749
38.2372,29690
38.2429,26793
38.2487,28308
38.2544,28418
38.2601,27475
38.2658,29614
38.2716,27323
38.2773,29289
38.283,27163
38.2887,26582
38.2944,26358
38.3002,24857
38.3059,24346
38.3116,24190
38.3173,25540
38.3231,27132
38.3288,28449
38.3345,32251
38.3402,35284
38.3459,36051
38.3516,39080
38.3574,39359
38.3631,38802
38.3688,35772
38.3745,33450
38.3803,30492
38.386,28038
38.3917,26532
38.3974,25375
38.4032,23324
38.4089,21704
38.4146,21481
38.4203,20249
38.4261,19219
38.4318,19879
38.4375,19503
38.4432,20505
38.4489,20305
38.4547,18575
38.4604,19466
38.4661,17407
38.4718,19513
38.4776,17073
38.4833,16025
38.489,16761
38.4947,17064
38.5004,17150
38.5062,15493
38.5119,15005
38.5176,15451
38.5233,16842
38.529,17290
38.5348,18849
38.5405,19317
38.5462,19405
38.5519,17538
38.5577,18992
38.5634,16621
38.5691,16178
38.5748,17164
38.5805,18091
38.5863,20027
38.592,23334
38.5977,27232
38.6034,32668
38.6092,37102
38.6149,34095
38.6206,29554
38.6263,25317
38.632,22173
38.6378,19893
38.6435,18027
38.6492,20263
38.6549,22601
38.6607,23240
38.6664,25236
38.6721,28924
38.6778,26532
38.6835,26610
38.6893,27987
38.695,26620
38.7007,21753
38.7064,22036
38.7122,17830
38.7179,16532
38.7236,15848
38.7293,15276
38.735,14273
38.7407,13821
38.7465,14824
38.7522,16322
38.7579,17914
38.7636,18381
38.7694,23626
38.7751,26592
38.7808,26842
38.7865,28663
38.7923,24584
38.798,21848
38.8037,19126
38.8094,17084
38.8152,17151
38.8209,15717
38.8266,14855
38.8323,18266
38.838,16646
38.8438,19585
38.8495,22112
38.8552,22407
38.8609,23591
38.8666,21212
38.8724,19661
38.8781,16975
38.8838,17628
38.8895,14608
38.8953,15198
38.901,13708
38.9067,14662
38.9124,13854
38.9181,13528
38.9239,11236
38.9296,12709
38.9353,12379
38.941,13147
38.9468,15102
38.9525,13756
38.9582,11758
38.9639,13645
38.9696,12867
38.9754,12145
38.9811,12863
38.9868,13585
38.9925,13918
38.9982,13987
39.004,13065
39.0097,11991
39.0154,12414
39.0211,13231
39.0269,14724
39.0326,19394
39.0383,21199
39.044,21522
39.0498,21866
39.0555,23699
39.0612,19611
39.0669,20084
39.0726,17658
39.0784,18080
39.0841,16688
39.0898,16270
39.0955,15548
39.1013,15711
39.107,13476
39.1127,15122
39.1184,15933
39.1241,17270
39.1299,14641
39.1356,14704
39.1413,15094
39.147,16518
39.1528,14650
39.1585,16024
39.1642,15611
39.1699,17974
39.1756,16226
39.1814,17568
39.1871,17247
39.1928,17965
39.1985,18443
39.2042,17557
39.21,17580
39.2157,17299
39.2214,20118
39.2271,16444
39.2328,17799
39.2386,17640
39.2443,20402
39.25,18637
39.2557,19327
39.2615,15335
39.2672,16968
39.2729,15883
39.2786,14571
39.2844,15821
39.2901,16082
39.2958,17472
39.3015,16284
39.3072,17421
39.313,18252
39.3187,18880
39.3244,15363
39.3301,13993
39.3359,14091
39.3416,15925
39.3473,15806
39.353,16578
39.3587,16577
39.3645,17622
39.3702,20592
39.3759,19938
39.3816,21517
39.3874,21816
39.3931,19685
39.3988,18401
39.4045,17727
39.4102,17513
39.416,16382
39.4217,16517
39.4274,15641
39.4331,16807
39.4389,17590
39.4446,17410
39.4503,16992
39.456,18756
39.4617,20004
39.4674,21062
39.4732,24203
39.4789,27136
39.4846,30146
39.4903,32300
39.4961,33783
39.5018,33691
39.5075,29772
39.5132,28728
39.519,22380
39.5247,22494
39.5304,22092
39.5361,22544
39.5418,19371
39.5476,21135
39.5533,18598
39.559,22810
39.5647,19700
39.5705,20905
39.5762,22171
39.5819,20885
39.5876,23165
39.5933,21258
39.5991,21891
39.6048,20911
39.6105,22918
39.6162,24237
39.622,21856
39.6277,21924
39.6334,22969
39.6391,23864
39.6448,22248
39.6506,22342
39.6563,20140
39.662,23317
39.6677,22465
39.6735,24345
39.6792,23600
39.6849,20818
39.6906,21061
39.6963,21484
39.7021,21804
39.7078,21927
39.7135,21109
39.7192,21281
39.725,21834
39.7307,23758
39.7364,25079
39.7421,22242
39.7478,24635
39.7536,23458
39.7593,23037
39.765,25354
39.7707,28210
39.7765,25110
39.7822,27105
39.7879,27050
39.7936,27525
39.7993,25565
39.8051,26279
39.8108,25613
39.8165,25071
39.8222,24375
39.828,24591
39.8337,24731
39.8394,24980
39.8451,25736
39.8508,27939
39.8565,27418
39.8623,28191
39.868,29803
39.8737,29377
39.8794,28125
39.8852,26577
39.8909,27140
39.8966,25625
39.9023,28161
39.9081,27557
39.9138,27652
39.9195,27174
39.9252,26420
39.9309,27802
39.9367,28209
39.9424,28223
39.9481,30923
39.9538,29646
39.9596,29764
39.9653,29738
39.971,29871
39.9767,28961
39.9824,29776
39.9882,30260
39.9939,29388
39.9996,30010
40.0053,30491
40.0111,31044
40.0168,28557
40.0225,30505
40.0282,34755
40.0339,34085
40.0397,36234
40.0454,38634
40.0511,36878
40.0568,38492
40.0626,36027
40.0683,33240
40.074,33303
40.0797,35643
40.0854,34440
40.0911,33929
40.0969,34164
40.1026,34212
40.1083,36725
40.114,35705
40.1198,36051
40.1255,32076
40.1312,35729
40.1369,34041
40.1427,34703
40.1484,34760
40.1541,35492
40.1598,37335
40.1656,35899
40.1713,39312
40.177,38169
40.1827,38379
40.1884,37889
40.1942,38488
40.1999,36984
40.2056,38492
40.2113,38339
40.2171,39815
40.2228,39255
40.2285,39516
40.2342,39519
40.2399,40439
40.2457,37874
40.2514,39661
40.2571,39627
40.2628,39858
40.2685,38644
40.2743,42128
40.28,40116
40.2857,40865
40.2914,42427
40.2972,42961
40.3029,42263
40.3086,44881
40.3143,41711
40.32,40607
40.3258,41495
40.3315,41321
40.3372,43489
40.3429,43689
40.3486,45021
40.3544,48595
40.3601,51813
40.3658,50624
40.3715,52194
40.3773,48075
40.383,46266
40.3887,47137
40.3944,46525
40.4002,43961
40.4059,46718
40.4116,46032
40.4173,48512
40.423,48482
40.4288,49580
40.4345,48189
40.4402,48140
40.4459,51240
40.4517,48121
40.4574,48404
40.4631,48446
40.4688,49520
40.4745,48898
40.4803,48789
40.486,47446
40.4917,49042
40.4974,49438
40.5032,51106
40.5089,50614
40.5146,51859
40.5203,53120
40.526,55255
40.5318,53984
40.5375,54915
40.5432,53160
40.5489,55117
40.5547,51640
40.5604,54725
40.5661,54719
40.5718,53137
40.5775,56186
40.5833,53856
40.589,55317
40.5947,56813
40.6004,55328
40.6061,54638
40.6119,58324
40.6176,56461
40.6233,59151
40.629,55645
40.6348,58756
40.6405,59406
40.6462,58063
40.6519,58408
40.6576,59877
40.6634,60413
40.6691,62209
40.6748,63427
40.6805,61262
40.6863,60827
40.692,61746
40.6977,63053
40.7034,64327
40.7091,65297
40.7149,60826
40.7206,63077
40.7263,61457
40.732,60568
40.7378,66669
40.7435,62177
40.7492,64908
40.7549,65409
40.7606,66641
40.7664,65341
40.7721,67992
40.7778,66583
40.7835,69453
40.7893,67276
40.795,65614
40.8007,65669
40.8064,71904
40.8121,72460
40.8179,74990
40.8236,75771
40.8293,76064
40.835,72400
40.8408,72406
40.8465,76499
40.8522,79061
40.8579,81038
40.8636,81183
40.8694,82614
40.8751,85730
40.8808,83511
40.8865,87467
40.8923,89028
40.898,88571
40.9037,86473
40.9094,87390
40.9151,87833
40.9209,86952
40.9266,84768
40.9323,87838
40.938,83333
40.9437,85250
40.9495,84368
40.9552,80619
40.9609,82536
40.9666,83042
40.9723,82644
40.9781,82875
40.9838,84148
40.9895,81932
40.9952,83038
41.001,85212
41.0067,82884
41.0124,85524
41.0181,86310
41.0239,85425
41.0296,84840
41.0353,87441
41.041,87014
41.0467,88278
41.0525,90596
41.0582,87496
41.0639,86627
41.0696,93286
41.0754,98924
41.0811,106635
41.0868,114056
41.0925,113005
41.0982,104278
41.104,105087
41.1097,101385
41.1154,102488
41.1211,103024
41.1269,107411
41.1326,107813
41.1383,111492
41.144,111669
41.1497,119467
41.1555,122238
41.1612,129323
41.1669,129812
41.1726,132914
41.1784,136221
41.1841,133874
41.1898,133102
41.1955,136780
41.2012,132577
41.2069,134563
41.2127,130039
41.2184,125122
41.2241,126888
41.2298,129062
41.2356,120380
41.2413,118736
41.247,119678
41.2527,115619
41.2585,116697
41.2642,114459
41.2699,115005
41.2756,114016
41.2813,114122
41.2871,115085
41.2928,113824
41.2985,110952
41.3042,111696
41.31,112736
41.3157,111739
41.3214,115611
41.3271,112845
41.3328,112051
41.3386,110902
41.3443,115465
41.35,114568
41.3557,119678
41.3615,118283
41.3672,119380
41.3729,116646
41.3786,118991
41.3843,119869
41.3901,118950
41.3958,119778
41.4015,122325
41.4072,117647
41.413,123455
41.4187,121591
41.4244,123023
41.4301,121183
41.4358,120385
41.4415,119228
41.4473,122421
41.453,123640
41.4587,124010
41.4644,121510
41.4702,121044
41.4759,121985
41.4816,122577
41.4873,122623
41.4931,122207
41.4988,125261
41.5045,126946
41.5102,127006
41.516,129666
41.5217,124601
41.5274,126783
41.5331,130486
41.5388,128779
41.5446,128308
41.5503,131660
41.556,130409
41.5617,133619
41.5675,132681
41.5732,128349
41.5789,132746
41.5846,137831
41.5903,133762
41.5961,139545
41.6018,135204
41.6075,137511
41.6132,138967
41.6189,139401
41.6247,146655
41.6304,149869
41.6361,149658
41.6418,142482
41.6476,145523
41.6533,143840
41.659,147244
41.6647,149089
41.6704,154823
41.6762,162419
41.6819,167680
41.6876,167279
41.6933,161657
41.6991,150691
41.7048,156051
41.7105,149950
41.7162,151501
41.7219,155028
41.7277,152856
41.7334,153543
41.7391,155258
41.7448,157036
41.7506,158476
41.7563,157119
41.762,159212
41.7677,166011
41.7734,164566
41.7792,164799
41.7849,166784
41.7906,165691
41.7963,162465
41.8021,165136
41.8078,169020
41.8135,164221
41.8192,165179
41.8249,162815
41.8306,164093
41.8364,165409
41.8421,163910
41.8478,164653
41.8535,167925
41.8593,169233
41.865,166141
41.8707,163495
41.8764,170510
41.8822,173034
41.8879,173308
41.8936,171083
41.8993,169909
41.9051,176615
41.9108,174885
41.9165,170809
41.9222,173953
41.9279,175362
41.9337,173993
41.9394,170978
41.9451,174501
41.9508,172412
41.9565,178742
41.9623,180977
41.968,180810
41.9737,178235
41.9794,178024
41.9852,175453
41.9909,178311
41.9966,177973
42.0023,181006
42.008,178391
42.0138,180050
42.0195,180043
42.0252,181423
42.0309,179056
42.0367,185385
42.0424,183638
42.0481,185066
42.0538,180234
42.0595,185729
42.0653,183281
42.071,190212
42.0767,189254
42.0824,189036
42.0881,187210
42.0939,190835
42.0996,191328
42.1053,195878
42.111,186342
42.1168,191696
42.1225,197889
42.1282,193267
42.1339,194907
42.1397,200912
42.1454,196814
42.1511,198580
42.1568,197938
42.1625,201126
42.1683,199011
42.174,204330
42.1797,207711
42.1854,209224
42.1912,205394
42.1969,209912
42.2026,206417
42.2083,206666
42.214,216654
42.2198,243111
42.2255,272735
42.2312,285213
42.2369,271294
42.2427,244347
42.2484,233207
42.2541,227467
42.2598,226213
42.2655,225187
42.2713,221802
42.277,223817
42.2827,229383
42.2884,226599
42.2941,220888
42.2999,224862
42.3056,225799
42.3113,230638
42.317,226262
42.3227,227413
42.3285,233326
42.3342,224434
42.3399,226188
42.3456,231029
42.3514,233516
42.3571,235219
42.3628,228862
42.3685,228432
42.3743,234070
42.38,233988
42.3857,236674
42.3914,242851
42.3971,239050
42.4029,247884
42.4086,250600
42.4143,255809
42.42,252653
42.4258,250770
42.4315,245732
42.4372,243849
42.4429,245827
42.4486,245012
42.4544,240751
42.4601,245889
42.4658,247565
42.4715,244698
42.4773,241991
42.483,247163
42.4887,247203
42.4944,253210
42.5001,252645
42.5059,251167
42.5116,252895
42.5173,255632
42.523,256850
42.5288,255529
42.5345,253317
42.5402,250811
42.5459,256674
42.5516,260546
42.5574,264607
42.5631,256929
42.5688,263822
42.5745,269975
42.5802,266413
42.586,270807
42.5917,271948
42.5974,269688
42.6031,271122
42.6089,264949
42.6146,270437
42.6203,264772
42.626,270703
42.6318,269569
42.6375,271329
42.6432,269586
42.6489,274616
42.6546,272826
42.6604,278395
42.6661,275346
42.6718,275660
42.6775,274075
42.6832,276917
42.689,280019
42.6947,277112
42.7004,279230
42.7061,275322
42.7119,279042
42.7176,281810
42.7233,285300
42.729,283957
42.7347,289678
42.7405,294620
42.7462,290657
42.7519,294084
42.7576,299004
42.7634,301578
42.7691,309247
42.7748,321658
42.7805,323125
42.7862,324248
42.792,323895
42.7977,336078
42.8034,372107
42.8091,423224
42.8149,448539
42.8206,399004
42.8263,362203
42.832,341793
42.8377,334264
42.8435,330426
42.8492,329392
42.8549,329844
42.8606,323269
42.8664,330586
42.8721,332562
42.8778,334915
42.8835,327051
42.8892,331139
42.895,334178
42.9007,333713
42.9064,337911
42.9121,339434
42.9179,346683
42.9236,343935
42.9293,353818
42.935,350196
42.9407,355001
42.9464,351657
42.9522,357711
42.9579,354090
42.9636,356341
42.9693,355056
42.9751,354161
42.9808,350760
42.9865,353225
42.9922,349694
42.998,351347
43.0037,343020
43.0094,344637
43.0151,344006
43.0208,345980
43.0266,335898
43.0323,332798
43.038,334768
43.0437,340244
43.0495,332257
43.0552,338042
43.0609,334375
43.0666,334935
43.0723,334748
43.0781,330714
43.0838,338172
43.0895,330852
43.0952,333684
43.101,330892
43.1067,337712
43.1124,336745
43.1181,332372
43.1238,332877
43.1296,336076
43.1353,335604
43.141,338587
43.1467,330304
43.1525,335837
43.1582,339936
43.1639,335690
43.1696,349154
43.1753,384401
43.181,442638
43.1868,484582
43.1925,488638
43.1982,445209
43.2039,409372
43.2097,385843
43.2154,379207
43.2211,369600
43.2268,371272
43.2326,357533
43.2383,363849
43.244,353911
43.2497,354862
43.2555,357900
43.2612,359893
43.2669,362937
43.2726,354176
43.2783,353567
43.2841,346119
43.2898,358454
43.2955,354214
43.3012,366851
43.307,364255
43.3127,377892
43.3184,388136
43.3241,394479
43.3298,381948
43.3356,370067
43.3413,360199
43.347,360961
43.3527,352564
43.3584,350157
43.3642,350178
43.3699,346008
43.3756,353554
43.3813,350983
43.3871,353910
43.3928,352491
43.3985,356546
43.4042,350812
43.4099,352131
43.4157,350464
43.4214,349702
43.4271,352901
43.4328,352064
43.4385,360450
43.4443,364527
43.45,364384
43.4557,368895
43.4614,381191
43.4672,399307
43.4729,413816
43.4786,426969
43.4843,440557
43.4901,468348
43.4958,475239
43.5015,487886
43.5072,481076
43.5129,474154
43.5187,457584
43.5244,445725
43.5301,437593
43.5358,422006
43.5416,406206
43.5473,393943
43.553,385383
43.5587,380009
43.5644,377414
43.5702,374092
43.5759,374883
43.5816,373838
43.5873,363686
43.5931,371184
43.5988,365306
43.6045,370665
43.6102,371798
43.6159,373970
43.6217,367315
43.6274,370372
43.6331,368293
43.6388,370477
43.6446,373646
43.6503,380456
43.656,383917
43.6617,384395
43.6674,380467
43.6732,384271
43.6789,378337
43.6846,378169
43.6903,386578
43.696,381859
43.7018,383310
43.7075,380583
43.7132,380043
43.7189,385412
43.7247,383760
43.7304,382142
43.7361,388684
43.7418,398706
43.7475,401833
43.7533,409702
43.759,418584
43.7647,424087
43.7704,420732
43.7762,420125
43.7819,411369
43.7876,409646
43.7933,395142
43.799,384915
43.8048,378519
43.8105,374688
43.8162,368861
43.8219,363856
43.8277,368346
43.8334,367337
43.8391,366018
43.8448,365675
43.8505,394125
43.8563,477224
43.862,645071
43.8677,861212
43.8734,990760
43.8792,959716
43.8849,794947
43.8906,630432
43.8963,518133
43.902,465515
43.9078,442234
43.9135,421453
43.9192,400425
43.9249,397808
43.9307,384538
43.9364,381214
43.9421,377693
43.9478,369086
43.9535,371235
43.9593,370550
43.965,362490
43.9707,366147
43.9764,364001
43.9822,366753
43.9879,356229
43.9936,359313
43.9993,355569
44.005,360672
44.0108,352060
44.0165,350916
44.0222,349367
44.0279,351733
44.0336,347374
44.0394,357782
44.0451,346819
44.0508,342208
44.0565,342124
44.0622,345206
44.068,343232
44.0737,347323
44.0794,340783
44.0851,342115
44.0909,344830
44.0966,337685
44.1023,345396
44.108,340062
44.1138,336977
44.1195,338941
44.1252,341012
44.1309,334380
44.1366,335568
44.1424,338233
44.1481,336129
44.1538,336731
44.1595,343145
44.1653,332971
44.171,338416
44.1767,339448
44.1824,332525
44.1881,329339
44.1939,334438
44.1996,335037
44.2053,328548
44.211,329142
44.2168,330919
44.2225,336048
44.2282,334675
44.2339,334810
44.2396,338134
44.2454,333820
44.2511,336861
44.2568,334873
44.2625,346833
44.2683,378313
44.274,421526
44.2797,480575
44.2854,520054
44.2911,523047
44.2968,485815
44.3026,440342
44.3083,415771
44.314,392094
44.3197,384252
44.3255,382014
44.3312,378565
44.3369,371859
44.3426,370715
44.3484,369874
44.3541,367785
44.3598,367142
44.3655,365298
44.3712,356497
44.377,355057
44.3827,354408
44.3884,344484
44.3941,343703
44.3999,339348
44.4056,349502
44.4113,346011
44.417,340844
44.4227,345978
44.4285,343204
44.4342,338327
44.4399,344417
44.4456,345559
44.4514,347991
44.4571,349592
44.4628,348916
44.4685,354117
44.4742,355605
44.48,378530
44.4857,386452
44.4914,388941
44.4971,382208
44.5029,367322
44.5086,355181
44.5143,353000
44.52,345004
44.5257,343876
44.5315,342314
44.5372,346092
44.5429,341848
44.5486,345269
44.5543,341890
44.5601,341067
44.5658,333736
44.5715,336395
44.5772,333198
44.583,335312
44.5887,324951
44.5944,329225
44.6001,330284
44.6059,335534
44.6116,334869
44.6173,344920
44.623,340173
44.6287,338548
44.6345,336602
44.6402,324206
44.6459,326410
44.6516,327462
44.6574,330710
44.6631,329117
44.6688,327679
44.6745,322259
44.6802,317271
44.686,324065
44.6917,323685
44.6974,323990
44.7031,304390
44.7088,320415
44.7146,317521
44.7203,318033
44.726,318670
44.7317,317132
44.7375,328129
44.7432,322086
44.7489,320243
44.7546,317695
44.7603,323303
44.7661,317788
44.7718,322599
44.7775,318770
44.7832,315070
44.789,315471
44.7947,321386
44.8004,317548
44.8061,320223
44.8118,320991
44.8176,319381
44.8233,313515
44.829,316255
44.8347,315681
44.8405,314239
44.8462,310760
44.8519,319460
44.8576,318681
44.8633,318045
44.8691,317599
44.8748,311700
44.8805,316238
44.8862,313734
44.892,316760
44.8977,314259
44.9034,315883
44.9091,319791
44.9148,323720
44.9205,317556
44.9263,314489
44.932,315992
44.9377,316299
44.9435,315786
44.9492,312271
44.9549,316833
44.9606,310119
44.9663,318630
44.9721,316045
44.9778,315173
44.9835,314050
44.9892,319981
44.995,322780
