D:\MassHunter\GCMS\1\data\Stachys_bullata\FINAL_RUNS\SRI12.D 18 Mar 20  05:53 am
Start of data points
3.09247,10888
3.09818,11937
3.10392,10536
3.10963,11078
3.11535,11998
3.12108,11269
3.1268,10220
3.13252,11322
3.13825,10980
3.14397,9820
3.14968,9414
3.15542,9706
3.16113,9123
3.16685,8368
3.17258,7965
3.1783,7222
3.18402,7854
3.18975,8517
3.19547,7479
3.20118,7638
3.20692,6782
3.21263,6880
3.21835,7528
3.22408,6587
3.2298,6259
3.23552,6860
3.24125,6192
3.24697,5719
3.25268,6418
3.2584,6055
3.26413,5668
3.26985,6233
3.27557,4872
3.2813,6151
3.28702,5507
3.29273,6459
3.29847,5567
3.30418,5290
3.3099,5187
3.31563,6496
3.32135,5577
3.32707,6804
3.3328,5470
3.33852,5728
3.34423,5252
3.34997,5590
3.35568,5119
3.3614,4654
3.36713,3784
3.37285,3788
3.37857,4497
3.3843,5527
3.39002,4316
3.39573,4287
3.40147,3469
3.40718,3265
3.4129,2039
3.41863,2234
3.42435,2215
3.43007,2254
3.43578,2656
3.44152,2834
3.44723,2264
3.45295,1836
3.45868,2104
3.4644,2380
3.47012,2547
3.47585,2368
3.48157,2426
3.48728,2301
3.49302,2379
3.49873,2190
3.50445,2187
3.51018,2502
3.5159,2450
3.52162,2100
3.52735,2186
3.53307,2054
3.53878,1927
3.54452,2222
3.55023,2060
3.55595,2289
3.56168,1888
3.5674,1992
3.57312,2258
3.57885,2617
3.58457,1908
3.59028,2239
3.59602,2470
3.60173,2102
3.60745,1931
3.61317,2182
3.6189,1681
3.62462,2715
3.63033,2193
3.63607,2070
3.64178,2000
3.6475,2076
3.65323,1763
3.65895,1970
3.66467,2261
3.6704,2396
3.67612,1876
3.68183,2411
3.68757,1895
3.69328,2250
3.699,2102
3.70473,1857
3.71045,2025
3.71617,2221
3.7219,1853
3.72762,2000
3.73333,1613
3.73907,1856
3.74478,1850
3.7505,2188
3.75623,1630
3.76195,2248
3.76767,1897
3.77338,2350
3.77912,2141
3.78483,2017
3.79055,1731
3.79628,1895
3.802,2003
3.80772,1716
3.81345,1989
3.81917,1644
3.82488,1819
3.83062,2168
3.83633,2403
3.84205,1897
3.84778,2182
3.8535,1957
3.85922,2184
3.86495,1787
3.87067,1674
3.87638,1830
3.88212,1854
3.88783,1846
3.89355,1793
3.89928,1701
3.905,1800
3.91072,1776
3.91645,1666
3.92217,1957
3.92788,1854
3.93362,1797
3.93933,2088
3.94505,1875
3.95077,1885
3.9565,2037
3.96222,2112
3.96793,2443
3.97367,3780
3.97938,5131
3.9851,9676
3.99083,11792
3.99655,13403
4.00227,12056
4.008,10160
4.01372,7957
4.01943,6057
4.02517,4696
4.03088,4278
4.0366,4056
4.04233,3103
4.04805,3023
4.05377,3582
4.0595,3089
4.06522,2769
4.07093,2633
4.07667,2378
4.08238,2289
4.0881,1919
4.09383,1926
4.09955,2041
4.10527,2530
4.111,1421
4.11672,1640
4.12243,2065
4.12815,2005
4.13388,2114
4.1396,1668
4.14532,2077
4.15105,2118
4.15677,1587
4.16248,1569
4.16822,1421
4.17393,1978
4.17965,1545
4.18538,1707
4.1911,1431
4.19682,1561
4.20255,1658
4.20827,1767
4.21398,1447
4.21972,1758
4.22543,1825
4.23115,1683
4.23688,1968
4.2426,1682
4.24832,1888
4.25405,1442
4.25977,1418
4.26548,1837
4.27122,1772
4.27693,1626
4.28265,1418
4.28837,1722
4.2941,1584
4.29982,1322
4.30553,1761
4.31127,1354
4.31698,1436
4.3227,1737
4.32843,1367
4.33415,1513
4.33987,1451
4.3456,1205
4.35132,1612
4.35703,1533
4.36277,1642
4.36848,1313
4.3742,1365
4.37993,1665
4.38565,996
4.39137,1680
4.3971,1640
4.40282,1702
4.40853,1349
4.41427,1543
4.41998,1531
4.4257,1495
4.43143,1848
4.43715,1477
4.44287,1353
4.4486,1772
4.45432,1753
4.46003,1743
4.46575,1293
4.47148,1850
4.4772,1488
4.48292,1517
4.48865,1685
4.49437,1462
4.50008,1652
4.50582,1582
4.51153,1696
4.51725,1377
4.52298,1316
4.5287,1367
4.53442,1570
4.54015,1456
4.54587,1278
4.55158,1127
4.55732,1694
4.56303,1428
4.56875,1480
4.57448,1594
4.5802,1839
4.58592,1597
4.59165,1738
4.59737,1409
4.60308,1559
4.60882,1597
4.61453,1493
4.62025,1317
4.62598,1440
4.6317,1551
4.63742,1351
4.64313,1497
4.64887,961
4.65458,1070
4.6603,1399
4.66603,1477
4.67175,1486
4.67747,1454
4.6832,1604
4.68892,1318
4.69463,1494
4.70037,1897
4.70608,1877
4.7118,4373
4.71753,11914
4.72325,23886
4.72897,31788
4.7347,33453
4.74042,28878
4.74613,22310
4.75187,17373
4.75758,13078
4.7633,10136
4.76903,7897
4.77475,5947
4.78047,5046
4.7862,3438
4.79192,3639
4.79763,3031
4.80335,2459
4.80908,2274
4.8148,2357
4.82052,1568
4.82625,1225
4.83197,1627
4.83768,1353
4.84342,1327
4.84913,1354
4.85485,1769
4.86058,1331
4.8663,1631
4.87202,1406
4.87775,1250
4.88347,1513
4.88918,1123
4.89492,1307
4.90063,1384
4.90635,1247
4.91208,1387
4.9178,1307
4.92352,1349
4.92925,1462
4.93497,1495
4.94068,1281
4.94642,1570
4.95213,1334
4.95785,1589
4.96358,1898
4.9693,2102
4.97502,2695
4.98073,2795
4.98647,2492
4.99218,2097
4.9979,2009
5.00363,1996
5.00935,1556
5.01507,1476
5.0208,1767
5.02652,1344
5.03223,1360
5.03797,1363
5.04368,1502
5.0494,1408
5.05513,1261
5.06085,1233
5.06657,1203
5.0723,1292
5.07802,1338
5.08373,1348
5.08947,1140
5.09518,1459
5.1009,1356
5.10663,986
5.11235,1183
5.11807,1021
5.1238,1044
5.12952,1563
5.13523,1302
5.14097,1403
5.14668,1271
5.1524,1193
5.15812,1048
5.16385,1287
5.16957,1259
5.17528,960
5.18102,1278
5.18673,1374
5.19245,1396
5.19818,1271
5.2039,1029
5.20962,1393
5.21535,1174
5.22107,1353
5.22678,802
5.23252,1292
5.23823,1112
5.24395,1447
5.24968,1587
5.2554,1098
5.26112,1391
5.26685,1360
5.27257,1303
5.27828,1751
5.28402,1476
5.28973,1607
5.29545,1494
5.30118,1386
5.3069,1311
5.31262,1464
5.31835,1482
5.32407,1618
5.32978,1423
5.3355,1668
5.34123,2033
5.34695,1298
5.35267,1140
5.3584,1323
5.36412,1386
5.36983,1475
5.37557,1007
5.38128,1332
5.387,1377
5.39273,1072
5.39845,1550
5.40417,1086
5.4099,1416
5.41562,1331
5.42133,1214
5.42707,1024
5.43278,1098
5.4385,1277
5.44423,1132
5.44995,1181
5.45567,1117
5.4614,1527
5.46712,1138
5.47283,1351
5.47857,1369
5.48428,1045
5.49,1111
5.49572,1379
5.50145,1475
5.50717,1139
5.51288,969
5.51862,1206
5.52433,1137
5.53005,1320
5.53578,1038
5.5415,1430
5.54722,1344
5.55295,1314
5.55867,1160
5.56438,1481
5.57012,2444
5.57583,5712
5.58155,10397
5.58728,17526
5.593,21797
5.59872,19730
5.60445,18222
5.61017,13017
5.61588,11010
5.62162,7702
5.62733,5615
5.63305,3805
5.63878,3437
5.6445,2256
5.65022,2308
5.65595,1663
5.66167,1529
5.66738,1509
5.6731,1360
5.67883,1187
5.68455,1158
5.69027,1337
5.696,1125
5.70172,1299
5.70743,1112
5.71317,1206
5.71888,1550
5.7246,861
5.73033,976
5.73605,917
5.74177,914
5.7475,1363
5.75322,1177
5.75893,1311
5.76467,897
5.77038,1275
5.7761,1094
5.78183,929
5.78755,1295
5.79327,1132
5.799,984
5.80472,971
5.81043,1209
5.81617,1256
5.82188,1234
5.8276,1354
5.83332,1040
5.83905,1041
5.84477,946
5.85048,1447
5.85622,767
5.86193,1082
5.86765,1028
5.87338,838
5.8791,1331
5.88482,1113
5.89055,818
5.89627,876
5.90198,970
5.90772,1297
5.91343,993
5.91915,1087
5.92488,1059
5.9306,1369
5.93632,1033
5.94205,948
5.94777,1144
5.95348,1049
5.95922,1091
5.96493,1159
5.97065,1002
5.97638,1101
5.9821,1342
5.98782,1355
5.99355,1275
5.99927,844
6.00498,1260
6.0107,1242
6.01643,923
6.02215,1119
6.02787,1144
6.0336,985
6.03932,1022
6.04503,1064
6.05077,1161
6.05648,840
6.0622,1007
6.06793,1188
6.07365,1113
6.07937,1127
6.0851,1099
6.09082,787
6.09653,1220
6.10227,989
6.10798,1082
6.1137,741
6.11943,1084
6.12515,1237
6.13087,1182
6.1366,1029
6.14232,1211
6.14803,876
6.15377,1052
6.15948,1075
6.1652,1168
6.17093,966
6.17665,962
6.18237,1126
6.18808,767
6.19382,1015
6.19953,830
6.20525,1042
6.21098,1237
6.2167,856
6.22242,679
6.22815,1004
6.23387,1321
6.23958,1080
6.24532,1281
6.25103,1019
6.25675,1247
6.26248,1521
6.2682,1514
6.27392,1559
6.27965,1723
6.28537,1364
6.29108,1697
6.29682,1440
6.30253,1170
6.30825,1065
6.31398,1241
6.3197,988
6.32542,1161
6.33115,1640
6.33687,2472
6.34258,4500
6.34832,4925
6.35403,5805
6.35975,5614
6.36547,4396
6.3712,3287
6.37692,3063
6.38263,2792
6.38837,2373
6.39408,2013
6.3998,1946
6.40553,1963
6.41125,1428
6.41697,1399
6.4227,1376
6.42842,978
6.43413,853
6.43987,1025
6.44558,1055
6.4513,941
6.45703,1205
6.46275,845
6.46847,856
6.4742,970
6.47992,1017
6.48563,1093
6.49137,1258
6.49708,924
6.5028,794
6.50853,1196
6.51425,962
6.51997,980
6.5257,730
6.53142,841
6.53713,694
6.54285,861
6.54858,1240
6.5543,1008
6.56002,883
6.56575,1033
6.57147,734
6.57718,993
6.58292,888
6.58863,1235
6.59435,1294
6.60008,1056
6.6058,1016
6.61152,1118
6.61725,793
6.62297,642
6.62868,976
6.63442,784
6.64013,924
6.64585,957
6.65158,908
6.6573,908
6.66302,869
6.66875,1036
6.67447,1016
6.68018,895
6.68592,886
6.69163,1028
6.69735,724
6.70307,799
6.7088,801
6.71452,932
6.72023,787
6.72597,1019
6.73168,947
6.7374,1187
6.74313,1073
6.74885,814
6.75457,1006
6.7603,1069
6.76602,1219
6.77173,996
6.77747,1021
6.78318,909
6.7889,1192
6.79463,782
6.80035,711
6.80607,647
6.8118,745
6.81752,1046
6.82323,892
6.82897,647
6.83468,1019
6.8404,1004
6.84613,938
6.85185,734
6.85757,861
6.8633,815
6.86902,1174
6.87473,642
6.88045,835
6.88618,714
6.8919,1096
6.89762,1022
6.90335,935
6.90907,1346
6.91478,1075
6.92052,816
6.92623,1061
6.93195,888
6.93768,850
6.9434,936
6.94912,1123
6.95485,1149
6.96057,1061
6.96628,950
6.97202,1062
6.97773,603
6.98345,944
6.98918,921
6.9949,1035
7.00062,931
7.00635,657
7.01207,942
7.01778,1008
7.02352,833
7.02923,1114
7.03495,918
7.04067,1265
7.0464,796
7.05212,701
7.05783,707
7.06357,934
7.06928,817
7.075,799
7.08073,811
7.08645,702
7.09217,1048
7.0979,950
7.10362,751
7.10933,910
7.11507,1194
7.12078,963
7.1265,860
7.13223,909
7.13795,769
7.14367,415
7.1494,693
7.15512,882
7.16083,747
7.16657,800
7.17228,921
7.178,1145
7.18373,780
7.18945,1071
7.19517,1040
7.2009,1007
7.20662,814
7.21233,754
7.21805,609
7.22378,963
7.2295,912
7.23522,762
7.24095,642
7.24667,1120
7.25238,999
7.25812,1100
7.26383,890
7.26955,726
7.27528,905
7.281,900
7.28672,807
7.29245,956
7.29817,860
7.30388,851
7.30962,1001
7.31533,848
7.32105,1016
7.32678,990
7.3325,668
7.33822,1014
7.34395,1083
7.34967,622
7.35538,988
7.36112,959
7.36683,704
7.37255,1083
7.37828,895
7.384,891
7.38972,823
7.39543,1101
7.40117,1104
7.40688,854
7.4126,993
7.41833,898
7.42405,851
7.42977,1100
7.4355,755
7.44122,562
7.44693,1073
7.45267,893
7.45838,803
7.4641,737
7.46983,417
7.47555,846
7.48127,988
7.487,898
7.49272,880
7.49843,793
7.50417,962
7.50988,822
7.5156,884
7.52133,975
7.52705,783
7.53277,1035
7.5385,763
7.54422,1011
7.54993,969
7.55567,943
7.56138,961
7.5671,892
7.57282,866
7.57855,876
7.58427,999
7.58998,868
7.59572,1087
7.60143,692
7.60715,635
7.61288,587
7.6186,801
7.62432,867
7.63005,435
7.63577,1084
7.64148,652
7.64722,818
7.65293,1218
7.65865,757
7.66438,793
7.6701,911
7.67582,1043
7.68155,796
7.68727,841
7.69298,1004
7.69872,876
7.70443,929
7.71015,525
7.71588,847
7.7216,592
7.72732,1039
7.73303,800
7.73877,706
7.74448,861
7.7502,1055
7.75593,1054
7.76165,1123
7.76737,1168
7.7731,812
7.77882,1021
7.78453,955
7.79027,681
7.79598,1286
7.8017,1122
7.80743,1266
7.81315,1057
7.81887,1236
7.8246,962
7.83032,1151
7.83603,1337
7.84177,968
7.84748,1130
7.8532,1298
7.85893,1550
7.86465,1454
7.87037,1024
7.8761,1023
7.88182,846
7.88753,1084
7.89327,1130
7.89898,917
7.9047,1108
7.91042,1566
7.91615,705
7.92187,959
7.92758,885
7.93332,1107
7.93903,1379
7.94475,1284
7.95048,1880
7.9562,1198
7.96192,1167
7.96765,1222
7.97337,1443
7.97908,1496
7.98482,2382
7.99053,1959
7.99625,2075
8.00198,1725
8.0077,2112
8.01342,3077
8.01915,3189
8.02487,5544
8.03058,7731
8.03632,9612
8.04203,11764
8.04775,10521
8.05348,9157
8.0592,6242
8.06492,5505
8.07065,4046
8.07637,3086
8.08208,2253
8.0878,1929
8.09353,2365
8.09925,1594
8.10497,1848
8.1107,1995
8.11642,1995
8.12213,1653
8.12787,1997
8.13358,1836
8.1393,1715
8.14503,1983
8.15075,2026
8.15647,1827
8.1622,1732
8.16792,1740
8.17363,2073
8.17937,1872
8.18508,1653
8.1908,1781
8.19653,1834
8.20225,1921
8.20797,2041
8.2137,1770
8.21942,1370
8.22513,1698
8.23087,1697
8.23658,2039
8.2423,1867
8.24802,2093
8.25375,1869
8.25947,1646
8.26518,1757
8.27092,2060
8.27663,2082
8.28235,2009
8.28808,1574
8.2938,1710
8.29952,1946
8.30525,1893
8.31097,1854
8.31668,2093
8.32242,1824
8.32813,2132
8.33385,1789
8.33958,1764
8.3453,1529
8.35102,1516
8.35675,1426
8.36247,1712
8.36818,1550
8.37392,1733
8.37963,1343
8.38535,1832
8.39108,1401
8.3968,1700
8.40252,1970
8.40825,1394
8.41397,1082
8.41968,1236
8.4254,1445
8.43113,1330
8.43685,1907
8.44257,1412
8.4483,1728
8.45402,1548
8.45973,1396
8.46547,1640
8.47118,1656
8.4769,1917
8.48263,1971
8.48835,2043
8.49407,1600
8.4998,1982
8.50552,2463
8.51123,4035
8.51697,3793
8.52268,3982
8.5284,4930
8.53413,4236
8.53985,3818
8.54557,2558
8.5513,2274
8.55702,2083
8.56273,1401
8.56847,1454
8.57418,1946
8.5799,1270
8.58563,1767
8.59135,1617
8.59707,1965
8.60278,1509
8.60852,1731
8.61423,1848
8.61995,1456
8.62568,1942
8.6314,1486
8.63712,1789
8.64285,1670
8.64857,1518
8.65428,1629
8.66002,1837
8.66573,2001
8.67145,2160
8.67718,1563
8.6829,3057
8.68862,2643
8.69435,2573
8.70007,2225
8.70578,1903
8.71152,1495
8.71723,1799
8.72295,1699
8.72868,1702
8.7344,1393
8.74012,1651
8.74585,1517
8.75157,1298
8.75728,1322
8.76302,1710
8.76873,1797
8.77445,1414
8.78017,1767
8.7859,1558
8.79162,1898
8.79733,1271
8.80307,1472
8.80878,1560
8.8145,1876
8.82023,1690
8.82595,1643
8.83167,1608
8.8374,1749
8.84312,1678
8.84883,1503
8.85457,1533
8.86028,1780
8.866,1563
8.87173,1375
8.87745,1375
8.88317,1740
8.8889,1531
8.89462,1311
8.90033,1729
8.90607,1283
8.91178,1588
8.9175,1626
8.92323,1414
8.92895,1707
8.93467,1810
8.94038,1446
8.94612,1150
8.95183,1477
8.95755,1068
8.96328,1334
8.969,1437
8.97472,1465
8.98045,1251
8.98617,2021
8.99188,1115
8.99762,2025
9.00333,2177
9.00905,1552
9.01478,1059
9.0205,1416
9.02622,1359
9.03195,1772
9.03767,1484
9.04338,1337
9.04912,1490
9.05483,2172
9.06055,1257
9.06628,1544
9.072,1836
9.07772,1390
9.08345,1331
9.08917,1147
9.09488,1590
9.10062,1859
9.10633,1247
9.11205,1726
9.11777,1741
9.1235,1411
9.12922,1636
9.13493,1231
9.14067,1787
9.14638,1307
9.1521,1723
9.15783,1466
9.16355,1810
9.16927,1662
9.175,1685
9.18072,1464
9.18643,1233
9.19217,1248
9.19788,1402
9.2036,1477
9.20933,1430
9.21505,1277
9.22077,1748
9.2265,1912
9.23222,1228
9.23793,1774
9.24367,1497
9.24938,1394
9.2551,2317
9.26083,1673
9.26655,2183
9.27227,2615
9.27798,2037
9.28372,1853
9.28943,1813
9.29515,1291
9.30088,1434
9.3066,1340
9.31232,1401
9.31805,1535
9.32377,1960
9.32948,1999
9.33522,1651
9.34093,1704
9.34665,1393
9.35238,1262
9.3581,1406
9.36382,1542
9.36955,1236
9.37527,1317
9.38098,1029
9.38672,1109
9.39243,1550
9.39815,1398
9.40388,1470
9.4096,1306
9.41532,1604
9.42105,1635
9.42677,1670
9.43248,1285
9.43822,1593
9.44393,1388
9.44965,1098
9.45537,1605
9.4611,1295
9.46682,1423
9.47253,1303
9.47827,1611
9.48398,1895
9.4897,2203
9.49543,2093
9.50115,1570
9.50687,2089
9.5126,1952
9.51832,2192
9.52403,2653
9.52977,2787
9.53548,4342
9.5412,5413
9.54693,6094
9.55265,6887
9.55837,5849
9.5641,5292
9.56982,5703
9.57553,4318
9.58127,3098
9.58698,2626
9.5927,2300
9.59843,2248
9.60415,1426
9.60987,1527
9.6156,2021
9.62132,1789
9.62703,1441
9.63275,1290
9.63848,1007
9.6442,1846
9.64992,1754
9.65565,1071
9.66137,1058
9.66708,1528
9.67282,1325
9.67853,1261
9.68425,1842
9.68998,1740
9.6957,1202
9.70142,908
9.70715,1622
9.71287,1091
9.71858,1396
9.72432,1249
9.73003,1237
9.73575,1210
9.74148,1922
9.7472,1312
9.75292,1850
9.75865,1719
9.76437,1116
9.77008,1336
9.77582,1702
9.78153,1979
9.78725,1256
9.79298,1851
9.7987,1527
9.80442,1300
9.81013,1194
9.81587,1515
9.82158,1762
9.8273,1394
9.83303,1294
9.83875,1715
9.84447,1268
9.8502,1504
9.85592,1932
9.86163,2860
9.86737,4045
9.87308,5590
9.8788,6797
9.88453,7968
9.89025,7263
9.89597,5702
9.9017,3624
9.90742,2900
9.91313,2230
9.91887,2329
9.92458,1683
9.9303,1797
9.93603,1390
9.94175,1446
9.94747,1459
9.9532,1244
9.95892,1298
9.96463,1317
9.97035,1734
9.97608,1309
9.9818,1280
9.98752,1471
9.99325,1543
9.99897,1436
10.0047,1285
10.0104,1481
10.0161,1719
10.0219,1297
10.0276,961
10.0333,1335
10.039,1872
10.0448,1831
10.0505,1635
10.0562,2541
10.0619,2961
10.0676,2428
10.0734,1996
10.0791,1643
10.0848,1901
10.0905,1529
10.0963,1202
10.102,1780
10.1077,1421
10.1134,1118
10.1191,1410
10.1249,1893
10.1306,1317
10.1363,1461
10.142,980
10.1477,1361
10.1535,1540
10.1592,1058
10.1649,1019
10.1706,1424
10.1764,1617
10.1821,1349
10.1878,1140
10.1935,1114
10.1992,1618
10.205,1441
10.2107,1848
10.2164,2681
10.2221,4567
10.2279,7177
10.2336,10303
10.2393,12753
10.245,13457
10.2507,12444
10.2565,10731
10.2622,6780
10.2679,5185
10.2736,3778
10.2794,2702
10.2851,1675
10.2908,1546
10.2965,1509
10.3022,1375
10.308,1864
10.3137,1277
10.3194,1273
10.3251,1665
10.3309,1545
10.3366,1289
10.3423,1822
10.348,1177
10.3537,1722
10.3595,898
10.3652,1319
10.3709,1243
10.3766,1504
10.3824,1567
10.3881,953
10.3938,1620
10.3995,1756
10.4052,1566
10.411,1144
10.4167,1424
10.4224,1715
10.4281,1550
10.4339,1372
10.4396,1180
10.4453,1330
10.451,1200
10.4567,1255
10.4625,1101
10.4682,1443
10.4739,1131
10.4796,1242
10.4853,1643
10.4911,1365
10.4968,1547
10.5025,3091
10.5082,3861
10.514,4414
10.5197,4742
10.5254,4221
10.5311,3371
10.5368,3625
10.5426,3391
10.5483,2526
10.554,1952
10.5597,1602
10.5655,1765
10.5712,1534
10.5769,1339
10.5826,1133
10.5883,1004
10.5941,1258
10.5998,1525
10.6055,1070
10.6112,1236
10.617,1320
10.6227,1266
10.6284,1507
10.6341,1387
10.6398,1145
10.6456,1242
10.6513,855
10.657,1749
10.6627,1231
10.6685,1495
10.6742,1273
10.6799,838
10.6856,1878
10.6913,1490
10.6971,1266
10.7028,1135
10.7085,1161
10.7142,962
10.72,1491
10.7257,1823
10.7314,3247
10.7371,6910
10.7428,10814
10.7486,16116
10.7543,20143
10.76,23179
10.7657,22472
10.7715,19036
10.7772,14957
10.7829,12478
10.7886,9467
10.7943,6713
10.8001,5099
10.8058,4746
10.8115,3980
10.8172,3005
10.823,2645
10.8287,1802
10.8344,1840
10.8401,1622
10.8458,1485
10.8516,1148
10.8573,1273
10.863,1986
10.8687,1192
10.8744,1861
10.8802,1753
10.8859,1067
10.8916,1175
10.8973,1492
10.9031,1141
10.9088,1308
10.9145,998
10.9202,1359
10.9259,1139
10.9317,1596
10.9374,1084
10.9431,971
10.9488,1212
10.9546,1591
10.9603,1183
10.966,1264
10.9717,1624
10.9774,1111
10.9832,1241
10.9889,1355
10.9946,1583
11.0003,1852
11.0061,1152
11.0118,1030
11.0175,1391
11.0232,1622
11.0289,1367
11.0347,1355
11.0404,1765
11.0461,1035
11.0518,1058
11.0576,1201
11.0633,1467
11.069,1157
11.0747,1092
11.0804,1311
11.0862,1411
11.0919,957
11.0976,1318
11.1033,1489
11.1091,931
11.1148,1358
11.1205,1303
11.1262,1565
11.1319,1050
11.1377,1099
11.1434,1031
11.1491,823
11.1548,1282
11.1606,1110
11.1663,991
11.172,1178
11.1777,1136
11.1834,1100
11.1892,911
11.1949,1234
11.2006,1324
11.2063,1332
11.212,1319
11.2178,1312
11.2235,1514
11.2292,1211
11.2349,1382
11.2407,1163
11.2464,1316
11.2521,1233
11.2578,1352
11.2635,1309
11.2693,1050
11.275,1402
11.2807,1129
11.2864,1463
11.2922,1377
11.2979,1114
11.3036,1195
11.3093,1025
11.315,1342
11.3208,1124
11.3265,1344
11.3322,1222
11.3379,1262
11.3437,1052
11.3494,1049
11.3551,1321
11.3608,896
11.3665,1118
11.3723,1270
11.378,939
11.3837,1200
11.3894,1421
11.3952,1154
11.4009,1110
11.4066,1251
11.4123,960
11.418,1274
11.4238,1304
11.4295,1054
11.4352,961
11.4409,1411
11.4467,1372
11.4524,1144
11.4581,724
11.4638,1665
11.4695,1109
11.4753,1142
11.481,1332
11.4867,1569
11.4924,1250
11.4982,1350
11.5039,1523
11.5096,1137
11.5153,1699
11.521,1172
11.5268,1299
11.5325,1232
11.5382,1364
11.5439,1081
11.5496,1155
11.5554,1203
11.5611,1149
11.5668,1022
11.5725,1325
11.5783,949
11.584,1195
11.5897,1219
11.5954,1528
11.6011,1358
11.6069,1308
11.6126,1624
11.6183,1248
11.624,1161
11.6298,1271
11.6355,1631
11.6412,1345
11.6469,938
11.6526,1263
11.6584,1263
11.6641,1131
11.6698,828
11.6755,1094
11.6813,1548
11.687,1040
11.6927,1001
11.6984,1275
11.7041,1309
11.7099,1190
11.7156,915
11.7213,1170
11.727,935
11.7328,948
11.7385,1329
11.7442,945
11.7499,820
11.7556,1004
11.7614,1359
11.7671,1418
11.7728,830
11.7785,1261
11.7843,1561
11.79,893
11.7957,1322
11.8014,1468
11.8071,2019
11.8129,1103
11.8186,1135
11.8243,1416
11.83,1208
11.8358,1187
11.8415,1072
11.8472,1010
11.8529,688
11.8586,1262
11.8644,1143
11.8701,1382
11.8758,964
11.8815,1208
11.8872,1062
11.893,1009
11.8987,815
11.9044,1320
11.9101,902
11.9159,1265
11.9216,1229
11.9273,1891
11.933,2303
11.9387,3214
11.9445,3805
11.9502,3916
11.9559,3992
11.9616,3182
11.9674,2549
11.9731,2497
11.9788,2835
11.9845,1743
11.9902,1604
11.996,1176
12.0017,1499
12.0074,949
12.0131,1207
12.0189,1289
12.0246,728
12.0303,1505
12.036,904
12.0417,922
12.0475,1846
12.0532,953
12.0589,1071
12.0646,778
12.0704,1280
12.0761,1732
12.0818,1322
12.0875,1552
12.0932,935
12.099,886
12.1047,882
12.1104,1879
12.1161,1385
12.1219,1097
12.1276,1258
12.1333,1021
12.139,1167
12.1447,1408
12.1505,1008
12.1562,1150
12.1619,1732
12.1676,1163
12.1734,1437
12.1791,1243
12.1848,952
12.1905,1408
12.1962,1204
12.202,1395
12.2077,1536
12.2134,2992
12.2191,6081
12.2248,9468
12.2306,14404
12.2363,20318
12.242,22317
12.2477,21786
12.2535,18886
12.2592,15885
12.2649,11896
12.2706,6747
12.2763,5690
12.2821,3573
12.2878,2128
12.2935,2270
12.2992,1557
12.305,1608
12.3107,1072
12.3164,1602
12.3221,1304
12.3278,1270
12.3336,1229
12.3393,1475
12.345,1571
12.3507,903
12.3565,1266
12.3622,905
12.3679,1020
12.3736,840
12.3793,1140
12.3851,1025
12.3908,1181
12.3965,1211
12.4022,1245
12.408,1115
12.4137,1160
12.4194,1124
12.4251,1343
12.4308,1498
12.4366,1319
12.4423,1567
12.448,1012
12.4537,1171
12.4595,1451
12.4652,1262
12.4709,745
12.4766,965
12.4823,1213
12.4881,822
12.4938,1368
12.4995,876
12.5052,1720
12.511,1726
12.5167,1121
12.5224,1249
12.5281,1285
12.5338,891
12.5396,1055
12.5453,1561
12.551,1219
12.5567,702
12.5624,1309
12.5682,969
12.5739,1189
12.5796,1223
12.5853,1022
12.5911,810
12.5968,1015
12.6025,1104
12.6082,1036
12.6139,1264
12.6197,1057
12.6254,1139
12.6311,1087
12.6368,1493
12.6426,1149
12.6483,1117
12.654,1295
12.6597,1304
12.6654,1104
12.6712,843
12.6769,1466
12.6826,1211
12.6883,1129
12.6941,1112
12.6998,1214
12.7055,1099
12.7112,1475
12.7169,1376
12.7227,2829
12.7284,3859
12.7341,4038
12.7398,5499
12.7456,6249
12.7513,5725
12.757,5316
12.7627,5034
12.7684,3440
12.7742,2279
12.7799,2190
12.7856,1437
12.7913,574
12.7971,825
12.8028,1099
12.8085,471
12.8142,917
12.8199,889
12.8257,1147
12.8314,967
12.8371,1339
12.8428,1495
12.8486,1426
12.8543,873
12.86,858
12.8657,826
12.8714,764
12.8772,855
12.8829,573
12.8886,1213
12.8943,1399
12.9,1485
12.9058,1661
12.9115,1480
12.9172,1726
12.9229,2384
12.9287,1668
12.9344,1917
12.9401,1639
12.9458,639
12.9515,1444
12.9573,975
12.963,1669
12.9687,1438
12.9744,1106
12.9802,1553
12.9859,1684
12.9916,1368
12.9973,1335
13.003,1984
13.0088,1694
13.0145,1566
13.0202,982
13.0259,1832
13.0317,1510
13.0374,1194
13.0431,990
13.0488,1264
13.0545,1330
13.0603,1007
13.066,901
13.0717,1088
13.0774,1506
13.0832,1053
13.0889,1892
13.0946,1583
13.1003,2140
13.106,1993
13.1118,2659
13.1175,2762
13.1232,2853
13.1289,2662
13.1347,1931
13.1404,1470
13.1461,1532
13.1518,1838
13.1575,2023
13.1633,2110
13.169,1841
13.1747,1578
13.1804,2216
13.1862,1479
13.1919,1396
13.1976,1501
13.2033,1251
13.209,934
13.2148,1105
13.2205,990
13.2262,1115
13.2319,1556
13.2376,1157
13.2434,659
13.2491,1207
13.2548,781
13.2605,1184
13.2663,1440
13.272,966
13.2777,670
13.2834,829
13.2891,1103
13.2949,520
13.3006,955
13.3063,860
13.312,1092
13.3178,936
13.3235,939
13.3292,1042
13.3349,1133
13.3406,1208
13.3464,653
13.3521,1079
13.3578,942
13.3635,1083
13.3693,796
13.375,774
13.3807,1526
13.3864,1341
13.3921,1155
13.3979,1567
13.4036,1446
13.4093,1460
13.415,1065
13.4208,2619
13.4265,1377
13.4322,1640
13.4379,1283
13.4436,982
13.4494,1082
13.4551,937
13.4608,1241
13.4665,1070
13.4723,969
13.478,999
13.4837,961
13.4894,1375
13.4951,954
13.5009,1195
13.5066,1082
13.5123,627
13.518,1143
13.5238,735
13.5295,1140
13.5352,807
13.5409,777
13.5466,894
13.5524,1300
13.5581,882
13.5638,1072
13.5695,991
13.5753,1477
13.581,1469
13.5867,1108
13.5924,1159
13.5981,1104
13.6039,907
13.6096,960
13.6153,743
13.621,883
13.6267,683
13.6325,791
13.6382,1085
13.6439,766
13.6496,1317
13.6554,1258
13.6611,1192
13.6668,998
13.6725,766
13.6782,1093
13.684,821
13.6897,950
13.6954,1079
13.7011,593
13.7069,912
13.7126,1149
13.7183,1137
13.724,761
13.7297,992
13.7355,891
13.7412,1170
13.7469,1154
13.7526,832
13.7584,996
13.7641,1107
13.7698,1377
13.7755,1113
13.7812,846
13.787,1040
13.7927,1119
13.7984,1378
13.8041,1049
13.8099,746
13.8156,815
13.8213,1243
13.827,702
13.8327,953
13.8385,1701
13.8442,1103
13.8499,816
13.8556,869
13.8614,1038
13.8671,1569
13.8728,1515
13.8785,1561
13.8842,1592
13.89,1564
13.8957,1241
13.9014,1766
13.9071,1416
13.9129,1431
13.9186,1370
13.9243,1166
13.93,906
13.9357,1057
13.9415,1060
13.9472,967
13.9529,1356
13.9586,1439
13.9643,932
13.9701,803
13.9758,756
13.9815,1015
13.9872,969
13.993,994
13.9987,1150
14.0044,1325
14.0101,1293
14.0158,987
14.0216,765
14.0273,1565
14.033,1457
14.0387,973
14.0445,1008
14.0502,1023
14.0559,704
14.0616,812
14.0673,1147
14.0731,963
14.0788,1444
14.0845,1034
14.0902,1534
14.096,1123
14.1017,918
14.1074,801
14.1131,1157
14.1188,802
14.1246,1555
14.1303,1942
14.136,1638
14.1417,2563
14.1475,2415
14.1532,2873
14.1589,2508
14.1646,2009
14.1703,1851
14.1761,1111
14.1818,1662
14.1875,1197
14.1932,1233
14.199,980
14.2047,1463
14.2104,1543
14.2161,1183
14.2218,1447
14.2276,1480
14.2333,1504
14.239,2568
14.2447,3162
14.2505,3865
14.2562,5443
14.2619,6812
14.2676,8613
14.2733,7067
14.2791,7261
14.2848,5000
14.2905,3922
14.2962,3355
14.3019,1430
14.3077,1654
14.3134,2194
14.3191,2012
14.3248,1687
14.3306,1524
14.3363,1060
14.342,1253
14.3477,1156
14.3534,830
14.3592,1021
14.3649,966
14.3706,765
14.3763,924
14.3821,1061
14.3878,613
14.3935,876
14.3992,1022
14.4049,1500
14.4107,1782
14.4164,2315
14.4221,2504
14.4278,2837
14.4336,2346
14.4393,2332
14.445,2000
14.4507,2436
14.4564,1650
14.4622,2242
14.4679,1712
14.4736,1027
14.4793,534
14.4851,1477
14.4908,1355
14.4965,1164
14.5022,1195
14.5079,1496
14.5137,885
14.5194,887
14.5251,914
14.5308,1116
14.5366,1176
14.5423,1315
14.548,1339
14.5537,1228
14.5594,968
14.5652,1177
14.5709,1251
14.5766,1069
14.5823,1039
14.5881,871
14.5938,738
14.5995,1053
14.6052,641
14.6109,575
14.6167,939
14.6224,953
14.6281,1386
14.6338,1316
14.6395,951
14.6453,831
14.651,697
14.6567,1002
14.6624,882
14.6682,1219
14.6739,1083
14.6796,1032
14.6853,849
14.691,840
14.6968,701
14.7025,848
14.7082,1053
14.7139,868
14.7197,1284
14.7254,955
14.7311,970
14.7368,1255
14.7425,778
14.7483,754
14.754,822
14.7597,851
14.7654,880
14.7712,457
14.7769,682
14.7826,781
14.7883,745
14.794,961
14.7998,675
14.8055,910
14.8112,943
14.8169,656
14.8227,890
14.8284,617
14.8341,1083
14.8398,1029
14.8455,766
14.8513,653
14.857,1092
14.8627,923
14.8684,984
14.8742,781
14.8799,1322
14.8856,1062
14.8913,826
14.897,1076
14.9028,694
14.9085,1152
14.9142,936
14.9199,1224
14.9257,1044
14.9314,935
14.9371,884
14.9428,1290
14.9485,664
14.9543,1015
14.96,736
14.9657,1125
14.9714,1022
14.9771,1304
14.9829,944
14.9886,781
14.9943,1045
15,857
15.0058,957
15.0115,1027
15.0172,1308
15.0229,713
15.0286,778
15.0344,1223
15.0401,668
15.0458,1099
15.0515,1324
15.0573,1078
15.063,530
15.0687,715
15.0744,681
15.0801,389
15.0859,1101
15.0916,731
15.0973,1065
15.103,1203
15.1088,1058
15.1145,989
15.1202,706
15.1259,1012
15.1316,1010
15.1374,992
15.1431,765
15.1488,1347
15.1545,1088
15.1603,800
15.166,586
15.1717,749
15.1774,412
15.1831,885
15.1889,947
15.1946,1300
15.2003,856
15.206,880
15.2118,978
15.2175,925
15.2232,738
15.2289,902
15.2346,884
15.2404,1002
15.2461,1432
15.2518,738
15.2575,1065
15.2633,1082
15.269,698
15.2747,928
15.2804,664
15.2861,790
15.2919,1170
15.2976,967
15.3033,619
15.309,672
15.3147,822
15.3205,762
15.3262,880
15.3319,500
15.3376,1133
15.3434,580
15.3491,767
15.3548,923
15.3605,1134
15.3662,1295
15.372,1594
15.3777,1629
15.3834,1293
15.3891,1193
15.3949,933
15.4006,597
15.4063,865
15.412,1009
15.4177,513
15.4235,860
15.4292,1068
15.4349,549
15.4406,991
15.4464,780
15.4521,967
15.4578,894
15.4635,777
15.4692,619
15.475,1206
15.4807,896
15.4864,1094
15.4921,429
15.4979,552
15.5036,720
15.5093,615
15.515,750
15.5207,719
15.5265,683
15.5322,907
15.5379,832
15.5436,524
15.5494,836
15.5551,413
15.5608,790
15.5665,659
15.5722,467
15.578,519
15.5837,1007
15.5894,915
15.5951,707
15.6009,1098
15.6066,902
15.6123,980
15.618,1182
15.6237,883
15.6295,708
15.6352,953
15.6409,537
15.6466,959
15.6523,1049
15.6581,626
15.6638,837
15.6695,875
15.6752,1096
15.681,972
15.6867,931
15.6924,1024
15.6981,1225
15.7038,1332
15.7096,824
15.7153,995
15.721,1104
15.7267,618
15.7325,1018
15.7382,798
15.7439,789
15.7496,839
15.7553,825
15.7611,838
15.7668,639
15.7725,939
15.7782,1138
15.784,956
15.7897,739
15.7954,811
15.8011,724
15.8068,777
15.8126,1381
15.8183,3092
15.824,9904
15.8297,18918
15.8355,37883
15.8412,62568
15.8469,86429
15.8526,116823
15.8583,134490
15.8641,135642
15.8698,119765
15.8755,89026
15.8812,62718
15.887,36863
15.8927,20986
15.8984,12103
15.9041,4818
15.9098,2574
15.9156,1441
15.9213,1356
15.927,1412
15.9327,1123
15.9385,634
15.9442,1097
15.9499,1192
15.9556,457
15.9613,1336
15.9671,1275
15.9728,969
15.9785,854
15.9842,668
15.9899,814
15.9957,716
16.0014,431
16.0071,443
16.0128,1082
16.0186,1045
16.0243,856
16.03,607
16.0357,736
16.0414,744
16.0472,838
16.0529,1000
16.0586,614
16.0643,485
16.07,600
16.0758,935
16.0815,920
16.0872,616
16.0929,781
16.0987,496
16.1044,568
16.1101,996
16.1158,788
16.1215,1134
16.1273,734
16.133,774
16.1387,1008
16.1444,1024
16.1502,618
16.1559,704
16.1616,755
16.1673,582
16.1731,1132
16.1788,1378
16.1845,1111
16.1902,1354
16.1959,778
16.2017,857
16.2074,1206
16.2131,964
16.2188,1481
16.2246,1520
16.2303,2092
16.236,1471
16.2417,1651
16.2474,1733
16.2532,2040
16.2589,2246
16.2646,1686
16.2703,1480
16.2761,2274
16.2818,2138
16.2875,2716
16.2932,3083
16.2989,3136
16.3046,3037
16.3104,3164
16.3161,1956
16.3218,2477
16.3275,2710
16.3333,2036
16.339,1327
16.3447,1407
16.3504,1367
16.3562,1698
16.3619,1304
16.3676,1086
16.3733,1236
16.379,1572
16.3848,1174
16.3905,985
16.3962,949
16.4019,956
16.4077,1308
16.4134,1361
16.4191,1187
16.4248,1418
16.4305,965
16.4363,1024
16.442,779
16.4477,1125
16.4534,827
16.4592,1125
16.4649,1424
16.4706,1038
16.4763,1112
16.482,1336
16.4878,1465
16.4935,1451
16.4992,1758
16.5049,1620
16.5106,1884
16.5164,1402
16.5221,1528
16.5278,1205
16.5335,583
16.5392,918
16.545,1094
16.5507,743
16.5564,1090
16.5621,1289
16.5679,1075
16.5736,1173
16.5793,1303
16.585,834
16.5908,1514
16.5965,1568
16.6022,1406
16.6079,1703
16.6137,1040
16.6194,1617
16.6251,705
16.6308,1140
16.6365,877
16.6423,959
16.648,1274
16.6537,1123
16.6594,1061
16.6652,1369
16.6709,729
16.6766,612
16.6823,650
16.688,955
16.6938,949
16.6995,1203
16.7052,1259
16.7109,970
16.7166,1069
16.7224,1013
16.7281,575
16.7338,1208
16.7395,783
16.7452,982
16.751,1244
16.7567,791
16.7624,1126
16.7681,1006
16.7739,464
16.7796,991
16.7853,1015
16.791,1326
16.7967,1195
16.8025,998
16.8082,912
16.8139,640
16.8196,1344
16.8254,808
16.8311,1124
16.8368,1104
16.8425,1130
16.8483,663
16.854,834
16.8597,884
16.8654,634
16.8711,1110
16.8769,693
16.8826,1002
16.8883,1241
16.894,2157
16.8998,1113
16.9055,1044
16.9112,1085
16.9169,1328
16.9226,922
16.9283,365
16.9341,809
16.9398,816
16.9455,924
16.9513,1050
16.957,962
16.9627,747
16.9684,1076
16.9741,1549
16.9798,1810
16.9856,2529
16.9913,2178
16.997,1981
17.0027,1431
17.0085,1319
17.0142,1292
17.0199,1525
17.0256,1533
17.0314,627
17.0371,1143
17.0428,611
17.0485,881
17.0542,767
17.06,1212
17.0657,1216
17.0714,955
17.0771,855
17.0829,1250
17.0886,1320
17.0943,1119
17.1,770
17.1057,1326
17.1115,801
17.1172,819
17.1229,1258
17.1286,788
17.1344,577
17.1401,679
17.1458,654
17.1515,619
17.1572,783
17.163,675
17.1687,979
17.1744,871
17.1801,713
17.1858,1038
17.1916,1088
17.1973,597
17.203,273
17.2087,448
17.2144,960
17.2202,989
17.2259,910
17.2316,733
17.2373,1573
17.2431,1522
17.2488,1359
17.2545,781
17.2602,876
17.266,791
17.2717,801
17.2774,663
17.2831,602
17.2889,928
17.2946,753
17.3003,743
17.306,726
17.3117,1218
17.3175,1027
17.3232,1019
17.3289,920
17.3346,891
17.3404,1088
17.3461,877
17.3518,1099
17.3575,776
17.3632,507
17.369,457
17.3747,878
17.3804,667
17.3861,598
17.3918,852
17.3976,1183
17.4033,971
17.409,934
17.4147,528
17.4204,848
17.4262,706
17.4319,798
17.4376,740
17.4433,780
17.4491,696
17.4548,637
17.4605,569
17.4662,830
17.472,1274
17.4777,649
17.4834,1039
17.4891,1038
17.4948,833
17.5006,540
17.5063,1205
17.512,1166
17.5177,814
17.5235,615
17.5292,495
17.5349,694
17.5406,639
17.5463,1505
17.5521,962
17.5578,612
17.5635,867
17.5692,865
17.575,669
17.5807,850
17.5864,1024
17.5921,755
17.5978,1105
17.6036,1047
17.6093,473
17.615,973
17.6207,993
17.6265,741
17.6322,1056
17.6379,1387
17.6436,1031
17.6493,830
17.655,1163
17.6608,1764
17.6665,2343
17.6722,2513
17.6779,3147
17.6837,1818
17.6894,1523
17.6951,1036
17.7008,790
17.7066,483
17.7123,709
17.718,1156
17.7237,1165
17.7294,297
17.7352,991
17.7409,904
17.7466,636
17.7523,819
17.7581,462
17.7638,775
17.7695,817
17.7752,713
17.7809,823
17.7867,666
17.7924,699
17.7981,825
17.8038,666
17.8096,785
17.8153,1314
17.821,883
17.8267,1032
17.8324,1016
17.8382,1003
17.8439,1016
17.8496,669
17.8553,579
17.8611,757
17.8668,990
17.8725,586
17.8782,925
17.8839,761
17.8897,426
17.8954,1123
17.9011,514
17.9068,762
17.9126,1238
17.9183,616
17.924,446
17.9297,1668
17.9354,2037
17.9412,1083
17.9469,609
17.9526,1615
17.9583,877
17.9641,2447
17.9698,3706
17.9755,3173
17.9812,2612
17.9869,2448
17.9927,2060
17.9984,1434
18.0041,1721
18.0098,799
18.0156,1025
18.0213,1033
18.027,1189
18.0327,889
18.0384,845
18.0442,575
18.0499,873
18.0556,977
18.0613,784
18.067,1253
18.0728,1533
18.0785,1270
18.0842,1629
18.0899,1553
18.0956,1458
18.1014,1628
18.1071,2233
18.1128,1237
18.1185,1407
18.1243,1305
18.13,1190
18.1357,1008
18.1414,883
18.1472,673
18.1529,661
18.1586,848
18.1643,807
18.17,1046
18.1758,582
18.1815,827
18.1872,894
18.1929,869
18.1987,715
18.2044,940
18.2101,1070
18.2158,826
18.2215,471
18.2273,797
18.233,645
18.2387,953
18.2444,808
18.2502,785
18.2559,1496
18.2616,1094
18.2673,721
18.273,708
18.2788,933
18.2845,823
18.2902,850
18.2959,909
18.3017,652
18.3074,586
18.3131,787
18.3188,470
18.3245,509
18.3302,452
18.336,876
18.3417,1036
18.3474,963
18.3531,538
18.3589,1238
18.3646,765
18.3703,1357
18.376,1038
18.3818,901
18.3875,995
18.3932,1100
18.3989,751
18.4046,761
18.4104,648
18.4161,1236
18.4218,743
18.4275,875
18.4333,904
18.439,517
18.4447,954
18.4504,677
18.4561,419
18.4619,651
18.4676,731
18.4733,377
18.479,706
18.4848,856
18.4905,776
18.4962,758
18.5019,797
18.5076,1212
18.5134,778
18.5191,1077
18.5248,931
18.5305,1133
18.5363,754
18.542,564
18.5477,1007
18.5534,1345
18.5591,1378
18.5649,1403
18.5706,1109
18.5763,1214
18.582,841
18.5878,874
18.5935,976
18.5992,445
18.6049,1088
18.6106,843
18.6164,1077
18.6221,1206
18.6278,809
18.6335,1171
18.6393,864
18.645,1296
18.6507,1425
18.6564,1004
18.6621,532
18.6679,867
18.6736,1525
18.6793,1041
18.685,1794
18.6908,1166
18.6965,2380
18.7022,610
18.7079,1100
18.7136,966
18.7194,1256
18.7251,1832
18.7308,1241
18.7365,1171
18.7423,686
18.748,1421
18.7537,850
18.7594,424
18.7651,508
18.7708,1162
18.7766,779
18.7823,1440
18.788,1161
18.7937,1125
18.7995,644
18.8052,800
18.8109,759
18.8166,709
18.8224,1270
18.8281,1228
18.8338,1015
18.8395,209
18.8452,629
18.851,955
18.8567,397
18.8624,686
18.8681,1642
18.8739,1277
18.8796,1177
18.8853,760
18.891,772
18.8967,1104
18.9025,1201
18.9082,1049
18.9139,900
18.9196,1250
18.9254,564
18.9311,1746
18.9368,872
18.9425,593
18.9482,528
18.954,910
18.9597,1361
18.9654,795
18.9711,457
18.9769,909
18.9826,668
18.9883,309
18.994,691
18.9997,612
19.0055,229
19.0112,1067
19.0169,582
19.0226,523
19.0284,1368
19.0341,835
19.0398,666
19.0455,796
19.0512,877
19.057,969
19.0627,1527
19.0684,1217
19.0741,1138
19.0799,1012
19.0856,1455
19.0913,943
19.097,1023
19.1027,401
19.1085,651
19.1142,824
19.1199,883
19.1256,1219
19.1313,796
19.1371,1041
19.1428,997
19.1485,936
19.1542,950
19.16,625
19.1657,1103
19.1714,1317
19.1771,1786
19.1828,1377
19.1886,911
19.1943,1594
19.2,1015
19.2057,1834
19.2114,1672
19.2172,1268
19.2229,1353
19.2286,989
19.2343,1716
19.2401,1417
19.2458,2052
19.2515,1614
19.2572,1229
19.263,1205
19.2687,1073
19.2744,1125
19.2801,970
19.2858,889
19.2916,1360
19.2973,1097
19.303,828
19.3087,825
19.3145,966
19.3202,992
19.3259,1382
19.3316,1153
19.3373,984
19.3431,1362
19.3488,1825
19.3545,2572
19.3602,2946
19.366,4496
19.3717,5454
19.3774,7257
19.3831,7289
19.3888,6168
19.3946,5079
19.4003,3694
19.406,2460
19.4117,1545
19.4175,1384
19.4232,1121
19.4289,819
19.4346,671
19.4403,699
19.4461,1092
19.4518,306
19.4575,537
19.4632,498
19.4689,426
19.4747,903
19.4804,756
19.4861,623
19.4918,608
19.4976,887
19.5033,521
19.509,931
19.5147,641
19.5204,491
19.5262,682
19.5319,1326
19.5376,324
19.5433,856
19.5491,849
19.5548,994
19.5605,737
19.5662,1150
19.5719,869
19.5777,705
19.5834,868
19.5891,1047
19.5948,960
19.6006,1571
19.6063,1603
19.612,1133
19.6177,2262
19.6234,1564
19.6291,789
19.6349,651
19.6406,647
19.6463,927
19.6521,650
19.6578,922
19.6635,1437
19.6692,817
19.6749,919
19.6807,719
19.6864,953
19.6921,1374
19.6978,755
19.7036,987
19.7093,1390
19.715,848
19.7207,873
19.7264,1113
19.7322,1281
19.7379,1294
19.7436,767
19.7493,478
19.7551,1516
19.7608,1818
19.7665,1519
19.7722,1593
19.7779,786
19.7837,1118
19.7894,866
19.7951,919
19.8008,686
19.8065,554
19.8123,1226
19.818,1118
19.8237,1221
19.8294,819
19.8352,1059
19.8409,490
19.8466,927
19.8523,1030
19.858,689
19.8638,396
19.8695,944
19.8752,1174
19.8809,649
19.8866,1262
19.8924,452
19.8981,1170
19.9038,518
19.9095,954
19.9153,1263
19.921,739
19.9267,1234
19.9324,1206
19.9382,362
19.9439,591
19.9496,890
19.9553,1316
19.961,801
19.9668,1301
19.9725,1295
19.9782,1375
19.9839,1563
19.9897,1724
19.9954,791
20.0011,1207
20.0068,402
20.0125,782
20.0183,659
20.024,418
20.0297,847
20.0354,993
20.0412,644
20.0469,1231
20.0526,737
20.0583,917
20.064,591
20.0698,887
20.0755,1503
20.0812,1154
20.0869,1284
20.0927,570
20.0984,1028
20.1041,1016
20.1098,1128
20.1155,922
20.1213,1283
20.127,530
20.1327,976
20.1384,786
20.1441,199
20.1499,623
20.1556,1260
20.1613,1474
20.167,1467
20.1728,2561
20.1785,2949
20.1842,5136
20.1899,6885
20.1956,6814
20.2014,7504
20.2071,6083
20.2128,4906
20.2185,4663
20.2243,3810
20.23,3206
20.2357,2638
20.2414,1364
20.2471,1744
20.2529,1738
20.2586,1302
20.2643,1750
20.27,1960
20.2758,375
20.2815,1296
20.2872,1432
20.2929,1723
20.2986,1428
20.3043,1679
20.3101,1235
20.3158,1457
20.3215,1760
20.3272,2253
20.333,2356
20.3387,1894
20.3444,428
20.3501,1381
20.3559,1244
20.3616,1272
20.3673,1506
20.373,1156
20.3788,1031
20.3845,740
20.3902,1395
20.3959,835
20.4016,1474
20.4074,1352
20.4131,645
20.4188,703
20.4245,878
20.4303,673
20.436,1774
20.4417,580
20.4474,1248
20.4531,925
20.4589,1329
20.4646,1392
20.4703,1283
20.476,913
20.4817,1065
20.4875,1061
20.4932,987
20.4989,676
20.5046,588
20.5104,591
20.5161,977
20.5218,953
20.5275,616
20.5332,946
20.539,930
20.5447,1129
20.5504,1025
20.5561,965
20.5619,693
20.5676,552
20.5733,1027
20.579,721
20.5847,893
20.5905,1018
20.5962,992
20.6019,1284
20.6076,1373
20.6134,1466
20.6191,1410
20.6248,1937
20.6305,2499
20.6362,3298
20.642,2952
20.6477,3010
20.6534,2629
20.6591,2307
20.6649,2261
20.6706,1608
20.6763,1095
20.682,530
20.6877,1255
20.6935,883
20.6992,1263
20.7049,660
20.7106,1049
20.7164,606
20.7221,818
20.7278,1005
20.7335,787
20.7392,1318
20.7449,771
20.7507,636
20.7564,717
20.7621,794
20.7678,1363
20.7736,1590
20.7793,3322
20.785,4496
20.7907,4153
20.7965,3972
20.8022,4603
20.8079,2359
20.8136,3053
20.8193,1497
20.8251,1111
20.8308,506
20.8365,1471
20.8422,1197
20.848,1471
20.8537,933
20.8594,1363
20.8651,1125
20.8708,883
20.8766,1413
20.8823,1587
20.888,950
20.8937,1671
20.8995,1364
20.9052,1537
20.9109,774
20.9166,867
20.9223,1034
20.9281,1189
20.9338,696
20.9395,858
20.9452,990
20.951,892
20.9567,1216
20.9624,863
20.9681,798
20.9738,991
20.9796,955
20.9853,1169
20.991,456
20.9967,512
21.0025,421
21.0082,979
21.0139,872
21.0196,946
21.0253,845
21.0311,843
21.0368,1178
21.0425,1244
21.0482,816
21.054,765
21.0597,1835
21.0654,1741
21.0711,1243
21.0768,1346
21.0826,1725
21.0883,1192
21.094,1179
21.0997,847
21.1055,587
21.1112,1394
21.1169,1190
21.1226,703
21.1283,426
21.1341,529
21.1398,642
21.1455,419
21.1512,669
21.1569,1107
21.1627,1265
21.1684,966
21.1741,997
21.1798,959
21.1856,915
21.1913,1110
21.197,737
21.2027,870
21.2084,695
21.2142,516
21.2199,940
21.2256,724
21.2313,546
21.2371,1124
21.2428,705
21.2485,636
21.2542,776
21.2599,666
21.2657,1261
21.2714,962
21.2771,634
21.2828,863
21.2886,588
21.2943,1008
21.3,1345
21.3057,1273
21.3114,1075
21.3172,1636
21.3229,2671
21.3286,2506
21.3343,2604
21.3401,2000
21.3458,2552
21.3515,2020
21.3572,1327
21.3629,1272
21.3687,1192
21.3744,1374
21.3801,1180
21.3858,1466
21.3916,854
21.3973,774
21.403,833
21.4087,1506
21.4144,1244
21.4202,728
21.4259,977
21.4316,830
21.4373,916
21.443,1639
21.4488,1625
21.4545,2842
21.4602,3632
21.4659,4190
21.4717,4560
21.4774,4236
21.4831,3848
21.4888,3316
21.4946,2961
21.5003,1368
21.506,933
21.5117,877
21.5174,1466
21.5232,1096
21.5289,976
21.5346,440
21.5403,849
21.546,1960
21.5518,721
21.5575,819
21.5632,968
21.5689,800
21.5747,871
21.5804,1063
21.5861,786
21.5918,495
21.5975,792
21.6033,895
21.609,1184
21.6147,1112
21.6204,970
21.6262,680
21.6319,1008
21.6376,1182
21.6433,738
21.649,905
21.6548,739
21.6605,1455
21.6662,1152
21.6719,892
21.6777,1153
21.6834,336
21.6891,503
21.6948,1276
21.7005,833
21.7063,1318
21.712,906
21.7177,1086
21.7234,1202
21.7292,483
21.7349,887
21.7406,598
21.7463,722
21.752,1071
21.7578,576
21.7635,726
21.7692,1330
21.7749,994
21.7807,1171
21.7864,1155
21.7921,696
21.7978,871
21.8035,800
21.8093,1300
21.815,1121
21.8207,405
21.8264,890
21.8322,779
21.8379,800
21.8436,915
21.8493,1176
21.855,1118
21.8607,726
21.8665,798
21.8722,1058
21.8779,1201
21.8836,862
21.8894,1440
21.8951,370
21.9008,730
21.9065,882
21.9123,946
21.918,1229
21.9237,938
21.9294,560
21.9351,1014
21.9409,1253
21.9466,1056
21.9523,1169
21.958,840
21.9638,1007
21.9695,479
21.9752,1207
21.9809,789
21.9866,1365
21.9924,962
21.9981,588
22.0038,765
22.0095,944
22.0153,609
22.021,1123
22.0267,772
22.0324,1273
22.0381,766
22.0439,449
22.0496,629
22.0553,1232
22.061,861
22.0668,1597
22.0725,709
22.0782,528
22.0839,873
22.0896,1087
22.0954,947
22.1011,717
22.1068,712
22.1125,1292
22.1183,417
22.124,601
22.1297,1489
22.1354,320
22.1411,1136
22.1469,948
22.1526,651
22.1583,653
22.164,707
22.1698,1229
22.1755,1039
22.1812,1080
22.1869,700
22.1926,898
22.1984,894
22.2041,763
22.2098,944
22.2155,805
22.2212,824
22.227,586
22.2327,1107
22.2384,928
22.2441,705
22.2499,1226
22.2556,1133
22.2613,856
22.267,787
22.2727,888
22.2785,1079
22.2842,874
22.2899,670
22.2956,965
22.3013,937
22.3071,807
22.3128,553
22.3185,677
22.3242,821
22.33,638
22.3357,1262
22.3414,752
22.3471,863
22.3529,570
22.3586,757
22.3643,1076
22.37,825
22.3757,863
22.3815,1295
22.3872,736
22.3929,986
22.3986,740
22.4044,476
22.4101,909
22.4158,910
22.4215,1384
22.4272,221
22.433,461
22.4387,1096
22.4444,961
22.4501,1015
22.4559,925
22.4616,909
22.4673,782
22.473,1110
22.4787,1038
22.4845,907
22.4902,975
22.4959,640
22.5016,1327
22.5074,696
22.5131,1003
22.5188,1078
22.5245,627
22.5302,709
22.536,672
22.5417,822
22.5474,798
22.5531,1176
22.5588,829
22.5646,1101
22.5703,810
22.576,1041
22.5817,893
22.5875,711
22.5932,817
22.5989,1058
22.6046,765
22.6103,941
22.6161,1490
22.6218,1145
22.6275,1134
22.6332,1204
22.639,399
22.6447,1105
22.6504,653
22.6561,633
22.6618,440
22.6676,518
22.6733,830
22.679,904
22.6847,1572
22.6905,903
22.6962,657
22.7019,927
22.7076,1161
22.7133,587
22.7191,882
22.7248,693
22.7305,1386
22.7362,680
22.742,863
22.7477,549
22.7534,1081
22.7591,979
22.7648,543
22.7706,756
22.7763,763
22.782,793
22.7877,1202
22.7935,734
22.7992,850
22.8049,783
22.8106,716
22.8163,1168
22.8221,1221
22.8278,759
22.8335,1257
22.8392,567
22.845,1038
22.8507,1072
22.8564,625
22.8621,678
22.8678,631
22.8736,879
22.8793,987
22.885,694
22.8907,974
22.8964,965
22.9022,1565
22.9079,690
22.9136,544
22.9193,1034
22.9251,1006
22.9308,487
22.9365,911
22.9422,685
22.9479,918
22.9537,762
22.9594,714
22.9651,436
22.9708,800
22.9766,547
22.9823,1102
22.988,1173
22.9937,915
22.9994,1049
23.0052,854
23.0109,669
23.0166,758
23.0223,1864
23.0281,860
23.0338,1075
23.0395,1240
23.0452,267
23.0509,787
23.0567,686
23.0624,1222
23.0681,853
23.0738,1176
23.0796,1302
23.0853,958
23.091,1138
23.0967,1134
23.1024,1283
23.1082,1320
23.1139,1353
23.1196,1674
23.1253,1272
23.1311,1434
23.1368,1249
23.1425,1131
23.1482,1030
23.1539,1637
23.1597,1296
23.1654,1100
23.1711,1292
23.1768,825
23.1826,1155
23.1883,1050
23.194,1470
23.1997,1180
23.2054,1349
23.2112,617
23.2169,614
23.2226,761
23.2283,798
23.234,1275
23.2398,1067
23.2455,1088
23.2512,479
23.2569,756
23.2627,1097
23.2684,1069
23.2741,950
23.2798,980
23.2855,857
23.2913,1426
23.297,1261
23.3027,868
23.3084,691
23.3142,651
23.3199,1327
23.3256,1275
23.3313,668
23.337,435
23.3428,1160
23.3485,1277
23.3542,941
23.3599,933
23.3657,581
23.3714,1068
23.3771,879
23.3828,616
23.3885,889
23.3943,999
23.4,1206
23.4057,1030
23.4114,1210
23.4171,1231
23.4229,1082
23.4286,1595
23.4343,1649
23.44,798
23.4458,1199
23.4515,769
23.4572,1349
23.4629,994
23.4687,1476
23.4744,1198
23.4801,1038
23.4858,782
23.4915,1201
23.4973,1189
23.503,1145
23.5087,984
23.5144,1062
23.5202,648
23.5259,307
23.5316,1045
23.5373,970
23.543,1026
23.5488,732
23.5545,1349
23.5602,1253
23.5659,1102
23.5716,764
23.5774,590
23.5831,1332
23.5888,1046
23.5945,1135
23.6003,1179
23.606,1487
23.6117,622
23.6174,1053
23.6231,887
23.6289,1249
23.6346,1127
23.6403,1060
23.646,830
23.6518,1111
23.6575,645
23.6632,620
23.6689,1293
23.6746,769
23.6804,1423
23.6861,848
23.6918,786
23.6975,1205
23.7033,906
23.709,1241
23.7147,1041
23.7204,907
23.7261,902
23.7319,705
23.7376,1036
23.7433,792
23.749,1153
23.7548,648
23.7605,996
23.7662,1217
23.7719,1269
23.7776,988
23.7834,793
23.7891,827
23.7948,1319
23.8005,674
23.8063,1055
23.812,1053
23.8177,1275
23.8234,928
23.8291,820
23.8348,838
23.8406,707
23.8463,919
23.852,792
23.8578,830
23.8635,724
23.8692,960
23.8749,220
23.8806,790
23.8864,1810
23.8921,1067
23.8978,1002
23.9035,949
23.9093,659
23.915,565
23.9207,761
23.9264,470
23.9321,1151
23.9379,1187
23.9436,1567
23.9493,1487
23.955,932
23.9607,664
23.9665,1225
23.9722,1538
23.9779,1081
23.9836,856
23.9894,873
23.9951,1053
24.0008,887
24.0065,468
24.0122,954
24.018,872
24.0237,896
24.0294,1068
24.0351,1229
24.0409,1205
24.0466,1322
24.0523,946
24.058,1404
24.0637,1368
24.0695,791
24.0752,1477
24.0809,1531
24.0866,1254
24.0924,904
24.0981,1074
24.1038,714
24.1095,1266
24.1152,1369
24.121,1327
24.1267,741
24.1324,1044
24.1381,1537
24.1439,835
24.1496,1274
24.1553,1216
24.161,1596
24.1667,1552
24.1725,2148
24.1782,1297
24.1839,1012
24.1896,742
24.1954,1259
24.2011,774
24.2068,1039
24.2125,959
24.2182,811
24.224,939
24.2297,947
24.2354,570
24.2411,970
24.2469,1252
24.2526,914
24.2583,1318
24.264,737
24.2697,1543
24.2755,1150
24.2812,1208
24.2869,1006
24.2926,412
24.2983,1311
24.3041,1260
24.3098,426
24.3155,1205
24.3212,1322
24.327,1510
24.3327,1162
24.3384,1242
24.3441,1046
24.3498,1812
24.3556,1441
24.3613,2348
24.367,1574
24.3727,1331
24.3785,1072
24.3842,1456
24.3899,1435
24.3956,791
24.4013,1458
24.4071,1179
24.4128,1592
24.4185,1775
24.4242,1367
24.43,1433
24.4357,1953
24.4414,1370
24.4471,1740
24.4528,1158
24.4586,1587
24.4643,1424
24.47,1306
24.4757,1162
24.4815,1422
24.4872,1626
24.4929,1083
24.4986,1011
24.5043,1640
24.5101,1102
24.5158,1470
24.5215,1119
24.5272,1232
24.533,1403
24.5387,1190
24.5444,1630
24.5501,1098
24.5558,769
24.5616,1986
24.5673,1133
24.573,1123
24.5787,776
24.5845,1558
24.5902,797
24.5959,1425
24.6016,779
24.6073,1437
24.6131,1395
24.6188,1182
24.6245,1674
24.6302,1385
24.6359,1147
24.6417,1194
24.6474,732
24.6531,896
24.6588,754
24.6646,1036
24.6703,1724
24.676,816
24.6817,801
24.6874,1242
24.6932,1268
24.6989,1729
24.7046,1283
24.7103,1522
24.7161,1128
24.7218,1245
24.7275,574
24.7332,1159
24.7389,1157
24.7447,585
24.7504,889
24.7561,968
24.7618,1866
24.7676,2014
24.7733,2688
24.779,3396
24.7847,3380
24.7904,4934
24.7962,4096
24.8019,4588
24.8076,4292
24.8133,3859
24.8191,2760
24.8248,2231
24.8305,1888
24.8362,1243
24.8419,1261
24.8477,842
24.8534,1287
24.8591,1206
24.8648,1218
24.8706,1303
24.8763,1710
24.882,1698
24.8877,1539
24.8934,2082
24.8992,2055
24.9049,2182
24.9106,2649
24.9163,1945
24.9221,1026
24.9278,1890
24.9335,1289
24.9392,1172
24.9449,1407
24.9507,1268
24.9564,1559
24.9621,1148
24.9678,1483
24.9735,1331
24.9793,1168
24.985,1270
24.9907,1712
24.9964,3032
25.0022,3886
25.0079,6170
25.0136,7498
25.0193,7886
25.025,7560
25.0308,8094
25.0365,7057
25.0422,4446
25.0479,3821
25.0537,2366
25.0594,1859
25.0651,1448
25.0708,1430
25.0765,1029
25.0823,1874
25.088,1320
25.0937,1898
25.0994,1152
25.1052,1304
25.1109,1894
25.1166,1359
25.1223,1552
25.128,1521
25.1338,1889
25.1395,1092
25.1452,1277
25.1509,1512
25.1567,1559
25.1624,1662
25.1681,1321
25.1738,1399
25.1795,2176
25.1853,1883
25.191,2122
25.1967,2083
25.2024,2465
25.2082,2491
25.2139,2466
25.2196,2533
25.2253,1882
25.231,2361
25.2368,1693
25.2425,2272
25.2482,2448
25.2539,1643
25.2597,1161
25.2654,1653
25.2711,1674
25.2768,2136
25.2825,1827
25.2883,2376
25.294,3088
25.2997,2825
25.3054,3048
25.3111,3321
25.3169,2298
25.3226,2481
25.3283,1781
25.334,2230
25.3398,1330
25.3455,482
25.3512,2433
25.3569,816
25.3626,1887
25.3684,1497
25.3741,1794
25.3798,1795
25.3855,2567
25.3913,1477
25.397,2783
25.4027,1889
25.4084,2444
25.4141,2266
25.4199,2285
25.4256,2731
25.4313,2061
25.437,1975
25.4428,1417
25.4485,1428
25.4542,1405
25.4599,1624
25.4656,574
25.4714,1401
25.4771,1089
25.4828,1506
25.4885,1931
25.4943,1697
25.5,1518
25.5057,1898
25.5114,2057
25.5171,1815
25.5229,2384
25.5286,1328
25.5343,1550
25.54,1394
25.5458,1237
25.5515,793
25.5572,1168
25.5629,1251
25.5686,1504
25.5744,1016
25.5801,1076
25.5858,1486
25.5915,1331
25.5973,1426
25.603,658
25.6087,1691
25.6144,1310
25.6201,834
25.6259,913
25.6316,1508
25.6373,627
25.643,1908
25.6487,1312
25.6545,1565
25.6602,946
25.6659,1341
25.6716,1165
25.6774,876
25.6831,830
25.6888,1193
25.6945,1758
25.7002,1760
25.706,1751
25.7117,1414
25.7174,1938
25.7231,2186
25.7289,1606
25.7346,1712
25.7403,1450
25.746,1705
25.7517,1125
25.7575,918
25.7632,1056
25.7689,1287
25.7746,1939
25.7804,1229
25.7861,1274
25.7918,1666
25.7975,1097
25.8032,2597
25.809,1829
25.8147,1604
25.8204,2359
25.8261,3118
25.8319,3078
25.8376,4441
25.8433,5976
25.849,5989
25.8547,5677
25.8605,4316
25.8662,5166
25.8719,3587
25.8776,2438
25.8834,2005
25.8891,1802
25.8948,1235
25.9005,1400
25.9062,1350
25.912,1885
25.9177,2198
25.9234,1234
25.9291,1163
25.9349,1386
25.9406,1092
25.9463,726
25.952,1110
25.9577,1204
25.9635,795
25.9692,816
25.9749,1307
25.9806,1382
25.9863,1415
25.9921,1689
25.9978,1474
26.0035,713
26.0092,1081
26.015,1050
26.0207,1540
26.0264,632
26.0321,931
26.0378,923
26.0436,1189
26.0493,942
26.055,1152
26.0607,1243
26.0665,1399
26.0722,1416
26.0779,946
26.0836,1084
26.0893,2404
26.0951,2726
26.1008,2626
26.1065,2675
26.1122,3739
26.118,3555
26.1237,3138
26.1294,2895
26.1351,2195
26.1408,1753
26.1466,1207
26.1523,1808
26.158,1587
26.1637,1265
26.1695,1270
26.1752,738
26.1809,791
26.1866,785
26.1923,1418
26.1981,1247
26.2038,480
26.2095,1010
26.2152,799
26.221,1155
26.2267,983
26.2324,1531
26.2381,1642
26.2438,1313
26.2496,861
26.2553,1617
26.261,1984
26.2667,1725
26.2725,1388
26.2782,1358
26.2839,1807
26.2896,706
26.2953,984
26.3011,1253
26.3068,1154
26.3125,1208
26.3182,1146
26.3239,1353
26.3297,1647
26.3354,1643
26.3411,1470
26.3468,1839
26.3526,1917
26.3583,1706
26.364,1362
26.3697,1625
26.3754,1267
26.3812,1381
26.3869,1268
26.3926,801
26.3983,1360
26.4041,1471
26.4098,713
26.4155,858
26.4212,1691
26.4269,1283
26.4327,1148
26.4384,1008
26.4441,1120
26.4498,1289
26.4556,1209
26.4613,1510
26.467,1335
26.4727,1430
26.4784,1433
26.4842,1040
26.4899,1250
26.4956,1554
26.5013,1974
26.5071,1529
26.5128,1501
26.5185,1260
26.5242,781
26.5299,1236
26.5357,1475
26.5414,1488
26.5471,1271
26.5528,1231
26.5586,916
26.5643,1558
26.57,1599
26.5757,1118
26.5814,871
26.5872,1991
26.5929,1019
26.5986,1778
26.6043,1092
26.6101,1336
26.6158,1286
26.6215,1752
26.6272,1196
26.6329,1638
26.6387,1168
26.6444,1233
26.6501,1369
26.6558,1566
26.6616,1125
26.6673,1422
26.673,1618
26.6787,1730
26.6844,1798
26.6902,1381
26.6959,2239
26.7016,1072
26.7073,1500
26.713,1949
26.7188,1745
26.7245,1023
26.7302,1298
26.7359,1137
26.7417,1269
26.7474,622
26.7531,1103
26.7588,1865
26.7645,1812
26.7703,2723
26.776,4624
26.7817,6545
26.7874,7295
26.7932,8557
26.7989,8258
26.8046,8416
26.8103,7129
26.816,4952
26.8218,3248
26.8275,2690
26.8332,1675
26.8389,1363
26.8447,1495
26.8504,1605
26.8561,1556
26.8618,1577
26.8675,1400
26.8733,1361
26.879,1740
26.8847,1081
26.8904,1006
26.8962,1994
26.9019,1308
26.9076,1379
26.9133,1040
26.919,1363
26.9248,1815
26.9305,1208
26.9362,1029
26.9419,1074
26.9477,996
26.9534,779
26.9591,1057
26.9648,885
26.9705,1281
26.9763,1050
26.982,1177
26.9877,1089
26.9934,861
26.9992,1491
27.0049,1165
27.0106,708
27.0163,1010
27.022,1315
27.0278,1329
27.0335,1467
27.0392,1199
27.0449,1042
27.0506,792
27.0564,959
27.0621,1179
27.0678,957
27.0735,1284
27.0793,964
27.085,1742
27.0907,802
27.0964,1427
27.1021,1253
27.1079,869
27.1136,993
27.1193,1236
27.125,848
27.1308,1227
27.1365,1210
27.1422,1259
27.1479,773
27.1536,1581
27.1594,996
27.1651,1051
27.1708,767
27.1765,1284
27.1823,1461
27.188,1179
27.1937,974
27.1994,1019
27.2051,833
27.2109,1460
27.2166,1094
27.2223,1481
27.228,1336
27.2338,1344
27.2395,1460
27.2452,1596
27.2509,1266
27.2566,1643
27.2624,1417
27.2681,917
27.2738,1545
27.2795,1938
27.2853,1353
27.291,1068
27.2967,1504
27.3024,1635
27.3081,1971
27.3139,1561
27.3196,1323
27.3253,1546
27.331,1746
27.3368,1363
27.3425,2125
27.3482,1783
27.3539,1394
27.3596,824
27.3654,1167
27.3711,1835
27.3768,1139
27.3825,1128
27.3882,1417
27.394,1432
27.3997,770
27.4054,1074
27.4111,1181
27.4169,1911
27.4226,1072
27.4283,1431
27.434,1443
27.4397,1001
27.4455,1306
27.4512,441
27.4569,1303
27.4626,928
27.4684,1638
27.4741,1386
27.4798,926
27.4855,1001
27.4912,1687
27.497,1351
27.5027,1413
27.5084,758
27.5141,1168
27.5199,410
27.5256,1618
27.5313,834
27.537,1618
27.5427,1105
27.5485,1255
27.5542,1040
27.5599,1088
27.5656,1883
27.5714,896
27.5771,963
27.5828,1175
27.5885,1333
27.5942,1204
27.6,587
27.6057,930
27.6114,1144
27.6171,1035
27.6229,786
27.6286,1316
27.6343,481
27.64,899
27.6457,1267
27.6515,1385
27.6572,998
27.6629,1466
27.6686,1420
27.6744,986
27.6801,967
27.6858,1299
27.6915,1602
27.6972,1922
27.703,1373
27.7087,1647
27.7144,711
27.7201,1561
27.7258,872
27.7316,1254
27.7373,991
27.743,1028
27.7487,1448
27.7545,1522
27.7602,1311
27.7659,856
27.7716,1287
27.7773,2023
27.7831,1436
27.7888,1776
27.7945,2240
27.8002,1356
27.806,1889
27.8117,736
27.8174,680
27.8231,1399
27.8288,1211
27.8346,783
27.8403,1030
27.846,887
27.8517,1219
27.8575,929
27.8632,1252
27.8689,1609
27.8746,1140
27.8803,1490
27.8861,1773
27.8918,1059
27.8975,1103
27.9032,1538
27.909,1684
27.9147,1040
27.9204,1370
27.9261,1617
27.9318,855
27.9376,1371
27.9433,1228
27.949,1110
27.9547,1197
27.9605,915
27.9662,280
27.9719,706
27.9776,1082
27.9833,1230
27.9891,1647
27.9948,1070
28.0005,1201
28.0062,1540
28.012,2122
28.0177,1179
28.0234,586
28.0291,1206
28.0348,1042
28.0406,2065
28.0463,1161
28.052,1043
28.0577,756
28.0634,750
28.0692,1070
28.0749,1420
28.0806,716
28.0863,1152
28.0921,1194
28.0978,1682
28.1035,1051
28.1092,458
28.1149,1090
28.1207,1274
28.1264,1061
28.1321,964
28.1378,830
28.1436,729
28.1493,1133
28.155,753
28.1607,650
28.1664,1426
28.1722,1352
28.1779,1288
28.1836,1062
28.1893,1086
28.1951,771
28.2008,1136
28.2065,1234
28.2122,1331
28.2179,1144
28.2237,675
28.2294,1248
28.2351,1416
28.2408,750
28.2466,1302
28.2523,1295
28.258,1227
28.2637,663
28.2694,957
28.2752,1246
28.2809,1592
28.2866,1046
28.2923,848
28.2981,1164
28.3038,1047
28.3095,753
28.3152,1144
28.3209,1284
28.3267,1206
28.3324,1019
28.3381,2166
28.3438,952
28.3496,2327
28.3553,2043
28.361,2682
28.3667,2114
28.3724,2600
28.3782,3242
28.3839,2400
28.3896,2890
28.3953,2891
28.401,2020
28.4068,2153
28.4125,1182
28.4182,1654
28.4239,829
28.4297,1089
28.4354,1486
28.4411,1306
28.4468,1044
28.4525,943
28.4583,1671
28.464,1113
28.4697,1005
28.4754,1373
28.4812,1286
28.4869,946
28.4926,1097
28.4983,1399
28.504,1139
28.5098,928
28.5155,860
28.5212,814
28.5269,1003
28.5327,937
28.5384,597
28.5441,546
28.5498,1077
28.5555,1633
28.5613,1587
28.567,1129
28.5727,1189
28.5784,1070
28.5842,978
28.5899,958
28.5956,1282
28.6013,928
28.607,1285
28.6128,1315
28.6185,1247
28.6242,1303
28.6299,535
28.6357,937
28.6414,1244
28.6471,784
28.6528,1058
28.6585,1254
28.6643,768
28.67,1396
28.6757,835
28.6814,818
28.6872,727
28.6929,915
28.6986,598
28.7043,841
28.71,1200
28.7158,1451
28.7215,1004
28.7272,542
28.7329,1143
28.7386,1965
28.7444,1430
28.7501,1636
28.7558,1007
28.7615,1382
28.7673,1103
28.773,1338
28.7787,1302
28.7844,1130
28.7901,423
28.7959,650
28.8016,1208
28.8073,809
28.813,908
28.8188,853
28.8245,1519
28.8302,1175
28.8359,1114
28.8416,897
28.8474,833
28.8531,888
28.8588,713
28.8645,1425
28.8703,825
28.876,588
28.8817,1530
28.8874,730
28.8931,710
28.8989,700
28.9046,992
28.9103,1253
28.916,1165
28.9218,1251
28.9275,1087
28.9332,1065
28.9389,1127
28.9446,867
28.9504,1372
28.9561,665
28.9618,945
28.9675,527
28.9733,415
28.979,1399
28.9847,956
28.9904,1281
28.9961,1120
29.0019,581
29.0076,930
29.0133,1400
29.019,1250
29.0248,991
29.0305,1250
29.0362,1380
29.0419,1808
29.0476,2225
29.0534,833
29.0591,1661
29.0648,1475
29.0705,1854
29.0762,3139
29.082,2311
29.0877,2204
29.0934,2238
29.0991,3170
29.1049,2351
29.1106,1697
29.1163,2187
29.122,1990
29.1277,1630
29.1335,1339
29.1392,1955
29.1449,2121
29.1506,2363
29.1564,1834
29.1621,3155
29.1678,3114
29.1735,2236
29.1792,2101
29.185,1572
29.1907,1401
29.1964,1277
29.2021,1465
29.2079,1966
29.2136,1142
29.2193,1490
29.225,1623
29.2307,1444
29.2365,1825
29.2422,1187
29.2479,973
29.2536,1032
29.2594,1353
29.2651,1041
29.2708,474
29.2765,1300
29.2822,1109
29.288,986
29.2937,1054
29.2994,1325
29.3051,1266
29.3109,1572
29.3166,1457
29.3223,2046
29.328,967
29.3337,1284
29.3395,1767
29.3452,1254
29.3509,1134
29.3566,1033
29.3624,1404
29.3681,872
29.3738,1368
29.3795,587
29.3852,630
29.391,1039
29.3967,1603
29.4024,1127
29.4081,714
29.4138,609
29.4196,1377
29.4253,748
29.431,1339
29.4367,912
29.4425,1511
29.4482,864
29.4539,1291
29.4596,500
29.4653,1317
29.4711,1155
29.4768,1483
29.4825,1555
29.4882,1442
29.494,1749
29.4997,2268
29.5054,1778
29.5111,1783
29.5168,1763
29.5226,1604
29.5283,1486
29.534,1714
29.5397,921
29.5455,1363
29.5512,1774
29.5569,1610
29.5626,1384
29.5683,1455
29.5741,506
29.5798,1953
29.5855,1780
29.5912,1681
29.597,1435
29.6027,1910
29.6084,2302
29.6141,2061
29.6198,1978
29.6256,1712
29.6313,1386
29.637,781
29.6427,620
29.6485,957
29.6542,1074
29.6599,630
29.6656,1563
29.6713,1522
29.6771,923
29.6828,573
29.6885,740
29.6942,945
29.7,544
29.7057,902
29.7114,166
29.7171,528
29.7228,408
29.7286,976
29.7343,541
29.74,1197
29.7457,1130
29.7515,1258
29.7572,1826
29.7629,1407
29.7686,766
29.7743,1032
29.7801,773
29.7858,1382
29.7915,1244
29.7972,593
29.8029,1302
29.8087,1186
29.8144,1841
29.8201,1222
29.8258,799
29.8316,832
29.8373,550
29.843,1258
29.8487,1269
29.8544,700
29.8602,1387
29.8659,1338
29.8716,568
29.8773,1385
29.8831,648
29.8888,849
29.8945,605
29.9002,1379
29.9059,1414
29.9117,1600
29.9174,859
29.9231,2443
29.9288,1713
29.9346,842
29.9403,836
29.946,696
29.9517,932
29.9574,871
29.9632,1680
29.9689,2859
29.9746,3718
29.9803,4222
29.9861,6362
29.9918,6507
29.9975,7268
30.0032,6432
30.0089,4357
30.0147,3371
30.0204,2067
30.0261,1590
30.0318,970
30.0376,756
30.0433,955
30.049,696
30.0547,810
30.0604,1380
30.0662,1393
30.0719,548
30.0776,680
30.0833,1242
30.0891,1040
30.0948,875
30.1005,587
30.1062,1499
30.1119,415
30.1177,943
30.1234,1352
30.1291,842
30.1348,1252
30.1405,661
30.1463,579
30.152,1199
30.1577,1215
30.1634,1050
30.1692,989
30.1749,1290
30.1806,1945
30.1863,1722
30.192,1702
30.1978,1049
30.2035,2030
30.2092,636
30.2149,1169
30.2207,412
30.2264,875
30.2321,676
30.2378,1088
30.2435,971
30.2493,1112
30.255,1218
30.2607,1613
30.2664,947
30.2722,1084
30.2779,1386
30.2836,1433
30.2893,1776
30.295,1521
30.3008,1385
30.3065,1026
30.3122,1234
30.3179,1528
30.3237,1141
30.3294,521
30.3351,1054
30.3408,668
30.3465,375
30.3523,805
30.358,1336
30.3637,551
30.3694,1171
30.3752,1061
30.3809,1016
30.3866,855
30.3923,722
30.398,1688
30.4038,1217
30.4095,1426
30.4152,1095
30.4209,819
30.4267,1313
30.4324,1108
30.4381,540
30.4438,932
30.4495,961
30.4553,1062
30.461,1440
30.4667,1174
30.4724,1122
30.4781,780
30.4839,803
30.4896,1145
30.4953,799
30.501,915
30.5068,1281
30.5125,1040
30.5182,910
30.5239,1076
30.5296,1147
30.5354,584
30.5411,1287
30.5468,851
30.5525,879
30.5583,699
30.564,1048
30.5697,1120
30.5754,969
30.5811,1303
30.5869,1621
30.5926,1571
30.5983,669
30.604,1224
30.6098,1171
30.6155,1055
30.6212,1046
30.6269,1866
30.6326,1136
30.6384,1201
30.6441,1381
30.6498,2036
30.6555,972
30.6613,1130
30.667,1079
30.6727,1443
30.6784,1219
30.6841,1648
30.6899,907
30.6956,961
30.7013,987
30.707,1229
30.7128,1218
30.7185,871
30.7242,1397
30.7299,1356
30.7356,1815
30.7414,2287
30.7471,1956
30.7528,2728
30.7585,2370
30.7643,1511
30.77,2412
30.7757,1503
30.7814,1308
30.7871,1391
30.7929,1636
30.7986,1721
30.8043,1402
30.81,1599
30.8157,1704
30.8215,626
30.8272,1105
30.8329,1220
30.8386,1297
30.8444,2131
30.8501,1407
30.8558,820
30.8615,1290
30.8672,1751
30.873,1461
30.8787,1880
30.8844,1139
30.8901,1018
30.8959,1457
30.9016,919
30.9073,1540
30.913,1913
30.9187,2548
30.9245,2949
30.9302,3079
30.9359,2634
30.9416,2686
30.9474,2398
30.9531,1830
30.9588,1612
30.9645,1888
30.9702,1287
30.976,965
30.9817,1088
30.9874,1248
30.9931,1384
30.9989,1178
31.0046,1111
31.0103,1490
31.016,1058
31.0217,762
31.0275,827
31.0332,665
31.0389,1072
31.0446,1093
31.0504,1246
31.0561,1072
31.0618,881
31.0675,1338
31.0732,1006
31.079,905
31.0847,735
31.0904,615
31.0961,708
31.1019,1148
31.1076,1914
31.1133,1713
31.119,1039
31.1247,826
31.1305,1242
31.1362,903
31.1419,1225
31.1476,975
31.1533,1302
31.1591,0
31.1648,719
31.1705,985
31.1762,669
31.182,1034
31.1877,2396
31.1934,2127
31.1991,2160
31.2048,3122
31.2106,1662
31.2163,1952
31.222,2834
31.2277,1696
31.2335,1978
31.2392,1896
31.2449,1203
31.2506,2586
31.2563,2561
31.2621,1899
31.2678,1930
31.2735,1443
31.2792,1576
31.285,1590
31.2907,1784
31.2964,1509
31.3021,2889
31.3078,1468
31.3136,2499
31.3193,1936
31.325,1308
31.3307,1169
31.3365,1757
31.3422,2100
31.3479,1259
31.3536,844
31.3593,1461
31.3651,1011
31.3708,1464
31.3765,1200
31.3822,1532
31.388,1221
31.3937,1943
31.3994,1658
31.4051,1061
31.4108,1060
31.4166,918
31.4223,998
31.428,1393
31.4337,1994
31.4395,1020
31.4452,997
31.4509,1057
31.4566,1480
31.4623,1294
31.4681,1391
31.4738,1487
31.4795,1364
31.4852,1060
31.4909,1595
31.4967,843
31.5024,903
31.5081,1164
31.5138,1547
31.5196,1610
31.5253,748
31.531,1597
31.5367,1114
31.5424,498
31.5482,1582
31.5539,1100
31.5596,1078
31.5653,1265
31.5711,1328
31.5768,1679
31.5825,920
31.5882,966
31.5939,1710
31.5997,1912
31.6054,617
31.6111,1579
31.6168,660
31.6226,824
31.6283,1249
31.634,1287
31.6397,1088
31.6454,1074
31.6512,1312
31.6569,1247
31.6626,703
31.6683,1031
31.6741,1508
31.6798,1256
31.6855,1356
31.6912,1308
31.6969,1336
31.7027,2171
31.7084,1240
31.7141,1631
31.7198,1142
31.7256,1327
31.7313,1806
31.737,1694
31.7427,2500
31.7484,1366
31.7542,1104
31.7599,1602
31.7656,1063
31.7713,1201
31.7771,1910
31.7828,1073
31.7885,1744
31.7942,690
31.7999,1371
31.8057,683
31.8114,1047
31.8171,953
31.8228,891
31.8285,713
31.8343,973
31.84,1180
31.8457,1843
31.8514,959
31.8572,1638
31.8629,790
31.8686,1368
31.8743,1385
31.88,1723
31.8858,1248
31.8915,1760
31.8972,1835
31.9029,2116
31.9087,3198
31.9144,2789
31.9201,2495
31.9258,2346
31.9315,3227
31.9373,3532
31.943,1857
31.9487,1460
31.9544,1653
31.9602,1353
31.9659,1622
31.9716,2266
31.9773,1710
31.983,1616
31.9888,1245
31.9945,1528
32.0002,1270
32.0059,1394
32.0117,1338
32.0174,1796
32.0231,903
32.0288,1647
32.0345,1550
32.0403,1284
32.046,991
32.0517,798
32.0574,1476
32.0632,948
32.0689,780
32.0746,791
32.0803,933
32.086,1347
32.0917,1403
32.0975,1062
32.1032,1216
32.1089,978
32.1146,1036
32.1204,1071
32.1261,927
32.1318,1159
32.1375,1255
32.1433,791
32.149,619
32.1547,944
32.1604,803
32.1662,1159
32.1719,908
32.1776,1311
32.1833,737
32.189,704
32.1947,579
32.2005,1144
32.2062,850
32.2119,498
32.2176,807
32.2234,874
32.2291,1811
32.2348,691
32.2405,660
32.2463,653
32.252,954
32.2577,1080
32.2634,1297
32.2691,736
32.2749,1246
32.2806,1015
32.2863,774
32.292,1030
32.2978,913
32.3035,1046
32.3092,948
32.3149,164
32.3206,1519
32.3264,722
32.3321,1974
32.3378,1513
32.3435,561
32.3492,1660
32.355,1039
32.3607,722
32.3664,1709
32.3721,679
32.3779,916
32.3836,861
32.3893,1025
32.395,760
32.4008,866
32.4065,1372
32.4122,917
32.4179,1080
32.4236,828
32.4293,786
32.4351,909
32.4408,1236
32.4465,1248
32.4522,1376
32.458,1308
32.4637,892
32.4694,776
32.4751,1162
32.4808,1089
32.4866,878
32.4923,1475
32.498,1575
32.5037,1190
32.5095,970
32.5152,1213
32.5209,1300
32.5266,1168
32.5324,998
32.5381,740
32.5438,962
32.5495,532
32.5552,1138
32.561,678
32.5667,894
32.5724,1134
32.5781,968
32.5838,839
32.5896,1524
32.5953,1072
32.601,1481
32.6067,1130
32.6125,1106
32.6182,1333
32.6239,887
32.6296,1214
32.6354,1024
32.6411,896
32.6468,1407
32.6525,1240
32.6582,1131
32.664,1123
32.6697,1593
32.6754,1057
32.6811,1356
32.6869,3064
32.6926,4595
32.6983,7418
32.704,9847
32.7097,12825
32.7154,15286
32.7212,16923
32.7269,15984
32.7326,15901
32.7383,12228
32.7441,9653
32.7498,6458
32.7555,5113
32.7612,4902
32.767,4276
32.7727,3293
32.7784,2340
32.7841,1874
32.7899,1945
32.7956,1803
32.8013,1250
32.807,1987
32.8127,2224
32.8184,1974
32.8242,2405
32.8299,2576
32.8356,3439
32.8413,3538
32.8471,2398
32.8528,2832
32.8585,2371
32.8642,2647
32.87,1613
32.8757,2295
32.8814,1471
32.8871,1501
32.8928,1584
32.8986,1504
32.9043,1487
32.91,1120
32.9157,1772
32.9215,1162
32.9272,760
32.9329,1570
32.9386,1361
32.9443,1547
32.9501,925
32.9558,1455
32.9615,1393
32.9672,1205
32.9729,831
32.9787,1176
32.9844,1779
32.9901,1287
32.9958,1634
33.0016,1121
33.0073,1430
33.013,1090
33.0187,833
33.0245,1048
33.0302,989
33.0359,1789
33.0416,751
33.0473,1172
33.053,1151
33.0588,953
33.0645,1011
33.0702,717
33.0759,1111
33.0817,1263
33.0874,943
33.0931,1755
33.0988,1282
33.1046,1894
33.1103,850
33.116,1080
33.1217,1385
33.1275,1200
33.1332,1025
33.1389,536
33.1446,860
33.1503,1038
33.1561,1570
33.1618,1111
33.1675,1629
33.1732,874
33.179,906
33.1847,1368
33.1904,1339
33.1961,1474
33.2018,1012
33.2075,2436
33.2133,2006
33.219,2323
33.2247,4019
33.2304,4101
33.2362,3556
33.2419,2202
33.2476,2335
33.2533,1415
33.2591,1378
33.2648,2041
33.2705,1706
33.2762,1512
33.2819,988
33.2877,827
33.2934,1567
33.2991,1353
33.3048,1038
33.3105,1655
33.3163,2029
33.322,2073
33.3277,1502
33.3334,2282
33.3392,2387
33.3449,1720
33.3506,2331
33.3563,1369
33.3621,2668
33.3678,1921
33.3735,1759
33.3792,1482
33.3849,1696
33.3907,1495
33.3964,885
33.4021,931
33.4078,1521
33.4136,879
33.4193,1509
33.425,983
33.4307,1700
33.4364,1000
33.4421,1771
33.4479,802
33.4536,1381
33.4593,1072
33.465,1225
33.4708,712
33.4765,1367
33.4822,902
33.4879,1419
33.4937,1134
33.4994,1180
33.5051,1259
33.5108,1057
33.5166,740
33.5223,1003
33.528,1366
33.5337,1246
33.5394,1596
33.5452,892
33.5509,1652
33.5566,1417
33.5623,2170
33.568,3144
33.5738,4287
33.5795,5217
33.5852,5212
33.5909,5928
33.5966,5745
33.6024,4784
33.6081,4820
33.6138,4272
33.6195,3054
33.6253,1458
33.631,2282
33.6367,1935
33.6424,1946
33.6482,1958
33.6539,1019
33.6596,2153
33.6653,2291
33.671,741
33.6768,1552
33.6825,1516
33.6882,1541
33.6939,1823
33.6996,1066
33.7054,1119
33.7111,1474
33.7168,1293
33.7225,1615
33.7283,702
33.734,847
33.7397,1353
33.7454,1432
33.7512,990
33.7569,1228
33.7626,863
33.7683,1138
33.774,1999
33.7798,1763
33.7855,1504
33.7912,1635
33.7969,1381
33.8027,1316
33.8084,1843
33.8141,1349
33.8198,1153
33.8255,1225
33.8312,983
33.837,1113
33.8427,1165
33.8484,1578
33.8541,785
33.8599,1087
33.8656,1303
33.8713,1111
33.877,1771
33.8828,1530
33.8885,966
33.8942,1243
33.8999,1536
33.9056,979
33.9114,1091
33.9171,1361
33.9228,1310
33.9285,1335
33.9342,1272
33.94,1031
33.9457,1089
33.9514,1098
33.9571,970
33.9629,1405
33.9686,1095
33.9743,836
33.98,1215
33.9858,1310
33.9915,1405
33.9972,1371
34.0029,1851
34.0086,686
34.0144,1369
34.0201,1376
34.0258,1344
34.0315,1380
34.0373,1788
34.043,2478
34.0487,1751
34.0544,1813
34.0601,1283
34.0658,1770
34.0716,1063
34.0773,649
34.083,1763
34.0887,1393
34.0945,551
34.1002,1474
34.1059,1048
34.1116,1428
34.1174,1454
34.1231,1546
34.1288,489
34.1345,1903
34.1403,1359
34.146,1267
34.1517,842
34.1574,1102
34.1631,1383
34.1688,990
34.1746,1673
34.1803,1553
34.186,1362
34.1917,1119
34.1975,1434
34.2032,1585
34.2089,1603
34.2146,1145
34.2204,1071
34.2261,1582
34.2318,903
34.2375,1237
34.2432,1046
34.249,957
34.2547,1330
34.2604,1276
34.2661,1772
34.2719,1555
34.2776,1516
34.2833,797
34.289,687
34.2947,1657
34.3005,1568
34.3062,1198
34.3119,1469
34.3176,876
34.3233,1233
34.3291,1484
34.3348,1594
34.3405,2245
34.3462,2386
34.352,3784
34.3577,6705
34.3634,9842
34.3691,11330
34.3749,12838
34.3806,12710
34.3863,12430
34.392,9737
34.3977,8253
34.4034,6133
34.4092,5134
34.4149,4666
34.4206,5543
34.4263,7003
34.4321,10499
34.4378,14423
34.4435,19855
34.4492,26252
34.4549,32981
34.4607,40684
34.4664,41892
34.4721,40561
34.4778,36467
34.4836,24695
34.4893,17549
34.495,10752
34.5007,6069
34.5065,3380
34.5122,1771
34.5179,1349
34.5236,1727
34.5294,1194
34.5351,1888
34.5408,1508
34.5465,1659
34.5522,1983
34.5579,1090
34.5637,1299
34.5694,1151
34.5751,1784
34.5808,1580
34.5866,1346
34.5923,1471
34.598,1496
34.6037,1245
34.6095,1379
34.6152,1705
34.6209,1536
34.6266,1749
34.6323,1568
34.6381,1549
34.6438,1285
34.6495,1332
34.6552,1349
34.661,1435
34.6667,1699
34.6724,1757
34.6781,1010
34.6838,821
34.6896,1373
34.6953,1830
34.701,1306
34.7067,865
34.7124,1083
34.7182,1520
34.7239,1615
34.7296,1668
34.7353,931
34.7411,1685
34.7468,2053
34.7525,1433
34.7582,1875
34.764,1398
34.7697,1555
34.7754,1382
34.7811,1449
34.7868,904
34.7925,1902
34.7983,993
34.804,1565
34.8097,1684
34.8154,1400
34.8212,1232
34.8269,1724
34.8326,870
34.8383,1448
34.8441,691
34.8498,742
34.8555,1736
34.8612,1413
34.867,1303
34.8727,1342
34.8784,1107
34.8841,1438
34.8898,1667
34.8956,1863
34.9013,900
34.907,1040
34.9127,1209
34.9185,1415
34.9242,1559
34.9299,1006
34.9356,1198
34.9413,1862
34.947,1267
34.9528,1867
34.9585,1232
34.9642,2061
34.9699,1680
34.9757,1084
34.9814,1386
34.9871,1192
34.9928,1156
34.9986,2011
35.0043,1002
35.01,1195
35.0157,1535
35.0214,1975
35.0272,1948
35.0329,2054
35.0386,1339
35.0443,936
35.05,2175
35.0558,1019
35.0615,2122
35.0672,1229
35.0729,1435
35.0787,1102
35.0844,1052
35.0901,1787
35.0958,1667
35.1016,996
35.1073,1034
35.113,1154
35.1187,1764
35.1244,1343
35.1302,1273
35.1359,1661
35.1416,2125
35.1473,1149
35.1531,1741
35.1588,1173
35.1645,1240
35.1702,1935
35.1759,1424
35.1817,1776
35.1874,1186
35.1931,1031
35.1988,1870
35.2046,1769
35.2103,1339
35.216,802
35.2217,1108
35.2274,1072
35.2332,2086
35.2389,1534
35.2446,1816
35.2503,2658
35.2561,2644
35.2618,2491
35.2675,3190
35.2732,3193
35.2789,2895
35.2846,1982
35.2904,1445
35.2961,2207
35.3018,1621
35.3075,1656
35.3133,1375
35.319,1334
35.3247,832
35.3304,1133
35.3362,1171
35.3419,1247
35.3476,1281
35.3533,1252
35.359,1964
35.3648,1216
35.3705,1136
35.3762,1073
35.3819,1640
35.3877,1665
35.3934,1197
35.3991,1042
35.4048,1595
35.4105,1448
35.4163,1209
35.422,1811
35.4277,968
35.4334,1220
35.4392,2217
35.4449,1878
35.4506,1263
35.4563,1281
35.462,1156
35.4678,1237
35.4735,627
35.4792,1224
35.4849,1239
35.4907,2499
35.4964,1116
35.5021,1191
35.5078,1789
35.5135,1058
35.5193,1756
35.525,1846
35.5307,1715
35.5364,1956
35.5421,1786
35.5479,1789
35.5536,1414
35.5593,2814
35.565,1425
35.5708,1186
35.5765,1407
35.5822,1922
35.5879,1203
35.5937,875
35.5994,1589
35.6051,1158
35.6108,864
35.6165,1788
35.6223,1904
35.628,1308
35.6337,947
35.6394,989
35.6451,1546
35.6509,1359
35.6566,1227
35.6623,2011
35.668,1326
35.6737,1542
35.6795,1239
35.6852,2358
35.6909,1876
35.6966,1472
35.7024,1342
35.7081,1081
35.7138,1653
35.7195,1333
35.7253,985
35.731,1326
35.7367,1292
35.7424,1225
35.7481,1371
35.7539,1994
35.7596,1794
35.7653,932
35.771,1968
35.7768,1571
35.7825,1587
35.7882,1363
35.7939,1402
35.7996,2238
35.8054,1463
35.8111,1482
35.8168,1877
35.8225,1357
35.8283,1277
35.834,1300
35.8397,1994
35.8454,1462
35.8511,1493
35.8569,1439
35.8626,1619
35.8683,2270
35.874,2955
35.8798,1372
35.8855,2300
35.8912,1555
35.8969,1830
35.9026,2029
35.9083,1243
35.9141,2096
35.9198,1846
35.9255,1768
35.9312,1215
35.937,1505
35.9427,1448
35.9484,1766
35.9541,1562
35.9599,940
35.9656,1541
35.9713,2736
35.977,1219
35.9827,1968
35.9885,687
35.9942,1589
35.9999,1753
36.0056,1471
36.0114,1498
36.0171,1283
36.0228,1745
36.0285,923
36.0342,1837
36.04,2018
36.0457,1704
36.0514,1694
36.0571,645
36.0629,1162
36.0686,1233
36.0743,2187
36.08,2275
36.0857,1548
36.0915,1623
36.0972,1330
36.1029,2012
36.1086,1822
36.1144,2301
36.1201,1888
36.1258,1639
36.1315,1927
36.1372,1624
36.1429,2006
36.1487,1434
36.1544,1541
36.1601,2043
36.1658,1488
36.1716,2031
36.1773,1124
36.183,2105
36.1887,2453
36.1945,1450
36.2002,1734
36.2059,1349
36.2116,1550
36.2174,2379
36.2231,1635
36.2288,1917
36.2345,1494
36.2402,866
36.246,1396
36.2517,2208
36.2574,1367
36.2631,1492
36.2689,1773
36.2746,1595
36.2803,1669
36.286,1456
36.2917,1901
36.2975,1164
36.3032,1515
36.3089,1712
36.3146,1632
36.3203,1215
36.3261,1743
36.3318,1176
36.3375,841
36.3432,1651
36.349,913
36.3547,1787
36.3604,1486
36.3661,1734
36.3718,1447
36.3776,1935
36.3833,1743
36.389,1126
36.3947,1470
36.4004,1580
36.4062,1584
36.4119,1498
36.4176,1506
36.4233,1233
36.4291,1969
36.4348,1513
36.4405,2351
36.4462,2259
36.452,2088
36.4577,1465
36.4634,1718
36.4691,1550
36.4748,1314
36.4806,1448
36.4863,1521
36.492,2087
36.4977,1481
36.5035,1695
36.5092,1370
36.5149,1615
36.5206,1805
36.5263,1030
36.5321,1255
36.5378,1693
36.5435,2153
36.5492,1260
36.555,1482
36.5607,1432
36.5664,1556
36.5721,1271
36.5778,2007
36.5836,1533
36.5893,1151
36.595,1668
36.6007,1421
36.6065,1738
36.6122,1753
36.6179,1372
36.6236,1407
36.6293,1744
36.6351,1518
36.6408,1566
36.6465,1763
36.6522,1658
36.6579,1871
36.6637,1885
36.6694,2469
36.6751,2641
36.6808,2957
36.6866,4876
36.6923,5653
36.698,6597
36.7037,8140
36.7094,7954
36.7152,7237
36.7209,6591
36.7266,5381
36.7323,5148
36.7381,3035
36.7438,2480
36.7495,2630
36.7552,2179
36.7609,2101
36.7667,1950
36.7724,1667
36.7781,2181
36.7838,2287
36.7895,1835
36.7953,2808
36.801,1633
36.8067,1956
36.8124,2389
36.8182,2722
36.8239,1592
36.8296,1696
36.8353,1900
36.8411,2025
36.8468,2131
36.8525,1912
36.8582,1470
36.8639,2020
36.8697,1137
36.8754,1820
36.8811,1774
36.8868,1989
36.8926,1746
36.8983,1847
36.904,2306
36.9097,2447
36.9154,2465
36.9212,2096
36.9269,2308
36.9326,2088
36.9383,2352
36.9441,1966
36.9498,2984
36.9555,1820
36.9612,1605
36.9669,1989
36.9727,2037
36.9784,2032
36.9841,2698
36.9898,2739
36.9955,2817
37.0013,2198
37.007,2631
37.0127,1867
37.0184,2234
37.0241,2649
37.0299,2400
37.0356,2019
37.0413,2669
37.047,2986
37.0528,2715
37.0585,2332
37.0642,2884
37.0699,2611
37.0757,2848
37.0814,2605
37.0871,2418
37.0928,3118
37.0985,2916
37.1043,3207
37.11,2542
37.1157,2901
37.1214,2408
37.1272,2594
37.1329,3047
37.1386,4134
37.1443,3076
37.15,3507
37.1558,2977
37.1615,3343
37.1672,3017
37.1729,3140
37.1787,2423
37.1844,2873
37.1901,3458
37.1958,3034
37.2015,3326
37.2073,3590
37.213,3026
37.2187,3115
37.2244,3426
37.2302,3113
37.2359,3253
37.2416,3734
37.2473,3746
37.253,3439
37.2587,3609
37.2645,3916
37.2702,3789
37.2759,3859
37.2816,4598
37.2874,4509
37.2931,3930
37.2988,4374
37.3045,4790
37.3103,4206
37.316,4992
37.3217,4260
37.3274,4990
37.3332,4957
37.3389,5141
37.3446,4649
37.3503,4960
37.356,5678
37.3618,4394
37.3675,4796
37.3732,4608
37.3789,5195
37.3846,4662
37.3904,6245
37.3961,5407
37.4018,5880
37.4075,4818
37.4133,5918
37.419,4953
37.4247,5914
37.4304,6347
37.4361,6203
37.4419,5442
37.4476,6174
37.4533,6181
37.459,5925
37.4648,5051
37.4705,6176
37.4762,5883
37.4819,6130
37.4876,7089
37.4934,6844
37.4991,7832
37.5048,7604
37.5105,9275
37.5162,7389
37.522,8880
37.5277,8731
37.5334,7223
37.5391,7409
37.5449,8200
37.5506,7258
37.5563,7331
37.562,7532
37.5678,8178
37.5735,7523
37.5792,7938
37.5849,7442
37.5906,7526
37.5964,7695
37.6021,6979
37.6078,6316
37.6135,6770
37.6193,6161
37.625,7079
37.6307,6942
37.6364,7259
37.6421,7055
37.6478,7549
37.6536,7031
37.6593,7371
37.665,8504
37.6708,8914
37.6765,11078
37.6822,12740
37.6879,15654
37.6936,19249
37.6994,20630
37.7051,21570
37.7108,20980
37.7165,19696
37.7222,17786
37.728,15249
37.7337,11158
37.7394,10660
37.7451,9373
37.7509,8215
37.7566,7854
37.7623,7395
37.768,7246
37.7737,7307
37.7795,9630
37.7852,11186
37.7909,18764
37.7966,28866
37.8024,46702
37.8081,77313
37.8138,119909
37.8195,174593
37.8252,232243
37.831,296123
37.8367,334305
37.8424,336755
37.8481,317325
37.8539,271818
37.8596,212641
37.8653,147564
37.871,103873
37.8767,69950
37.8824,44037
37.8882,31842
37.8939,23340
37.8996,17956
37.9053,14625
37.9111,13372
37.9168,13030
37.9225,10180
37.9282,9706
37.934,8733
37.9397,10079
37.9454,9885
37.9511,9598
37.9569,8574
37.9626,10118
37.9683,9607
37.974,8966
37.9797,8634
37.9855,8998
37.9912,8530
37.9969,9204
38.0026,8884
38.0084,8389
38.0141,7583
38.0198,7744
38.0255,6897
38.0312,8122
38.037,7816
38.0427,7783
38.0484,8684
38.0541,8190
38.0598,8680
38.0656,12813
38.0713,17171
38.077,23967
38.0827,34813
38.0885,55649
38.0942,81114
38.0999,118027
38.1056,170086
38.1113,229833
38.1171,301365
38.1228,360966
38.1285,416139
38.1342,454902
38.1399,484813
38.1457,487354
38.1514,473350
38.1571,446864
38.1628,412241
38.1686,373061
38.1743,338420
38.18,301672
38.1857,259270
38.1915,224406
38.1972,187409
38.2029,162464
38.2086,135873
38.2143,112820
38.2201,100697
38.2258,85496
38.2315,72541
38.2372,63162
38.243,55491
38.2487,47241
38.2544,44542
38.2601,39581
38.2658,35909
38.2716,34405
38.2773,30250
38.283,30258
38.2887,26850
38.2945,25231
38.3002,23730
38.3059,21652
38.3116,21037
38.3173,20938
38.3231,20175
38.3288,21275
38.3345,19072
38.3402,21932
38.346,20901
38.3517,21906
38.3574,21251
38.3631,20277
38.3688,19841
38.3745,15722
38.3803,14901
38.386,14679
38.3917,12915
38.3974,12030
38.4032,11437
38.4089,11322
38.4146,10524
38.4203,10855
38.4261,10379
38.4318,10588
38.4375,9532
38.4432,9767
38.4489,9132
38.4547,10500
38.4604,9769
38.4661,9017
38.4718,9626
38.4776,9144
38.4833,8471
38.489,9230
38.4947,9193
38.5004,9508
38.5062,8726
38.5119,9116
38.5176,9947
38.5233,11792
38.5291,10806
38.5348,13718
38.5405,12414
38.5462,12668
38.5519,11982
38.5577,11043
38.5634,10000
38.5691,10064
38.5748,8821
38.5806,9132
38.5863,9034
38.592,10056
38.5977,10370
38.6034,11151
38.6092,10683
38.6149,10940
38.6206,9732
38.6263,9479
38.6321,7701
38.6378,7227
38.6435,7782
38.6492,6671
38.6549,7701
38.6607,6047
38.6664,6555
38.6721,6801
38.6778,7153
38.6836,5576
38.6893,5796
38.695,7146
38.7007,7270
38.7064,5115
38.7122,6075
38.7179,6701
38.7236,7458
38.7293,6443
38.735,5856
38.7408,5593
38.7465,5549
38.7522,6380
38.7579,6318
38.7636,6632
38.7694,6464
38.7751,7159
38.7808,7211
38.7865,5967
38.7923,6088
38.798,6829
38.8037,6404
38.8094,7123
38.8152,7081
38.8209,7084
38.8266,5504
38.8323,6332
38.838,5036
38.8438,4788
38.8495,5094
38.8552,5866
38.8609,5559
38.8667,4938
38.8724,5149
38.8781,6196
38.8838,5820
38.8895,6500
38.8953,5885
38.901,6056
38.9067,5844
38.9124,6316
38.9182,5119
38.9239,6221
38.9296,5978
38.9353,6864
38.941,6301
38.9468,6214
38.9525,7155
38.9582,6170
38.9639,5749
38.9697,7079
38.9754,7536
38.9811,8269
38.9868,10101
38.9925,10222
38.9982,10131
39.004,9712
39.0097,9464
39.0154,7784
39.0211,7642
39.0269,8145
39.0326,7524
39.0383,9079
39.044,8341
39.0498,8871
39.0555,9494
39.0612,9350
39.0669,9735
39.0726,9350
39.0784,8242
39.0841,7459
39.0898,7955
39.0955,7360
39.1013,7086
39.107,8472
39.1127,7149
39.1184,9096
39.1241,8418
39.1299,7718
39.1356,10118
39.1413,9284
39.147,8736
39.1528,9540
39.1585,7659
39.1642,7994
39.1699,8436
39.1756,8184
39.1814,8926
39.1871,6294
39.1928,7538
39.1985,7279
39.2043,7857
39.21,8212
39.2157,9313
39.2214,8179
39.2271,9123
39.2328,11163
39.2386,9919
39.2443,9759
39.25,9385
39.2557,8494
39.2615,9565
39.2672,6803
39.2729,8902
39.2786,6759
39.2844,8968
39.2901,6711
39.2958,7810
39.3015,7628
39.3073,9145
39.313,8848
39.3187,8773
39.3244,8486
39.3301,8930
39.3359,9156
39.3416,8255
39.3473,8872
39.353,10047
39.3588,10980
39.3645,10630
39.3702,11233
39.3759,12631
39.3816,12168
39.3874,11671
39.3931,12579
39.3988,10806
39.4045,9378
39.4102,9596
39.416,9299
39.4217,9348
39.4274,9962
39.4331,8955
39.4389,11352
39.4446,9958
39.4503,10777
39.456,9450
39.4617,9760
39.4675,10479
39.4732,9289
39.4789,10412
39.4846,10802
39.4903,10034
39.4961,10561
39.5018,10861
39.5075,10623
39.5132,11573
39.519,11554
39.5247,9749
39.5304,11430
39.5361,11454
39.5419,10716
39.5476,9905
39.5533,11494
39.559,11559
39.5647,11604
39.5705,11494
39.5762,11772
39.5819,11613
39.5876,11223
39.5934,11001
39.5991,11006
39.6048,9775
39.6105,11094
39.6162,10530
39.622,11117
39.6277,11016
39.6334,11360
39.6391,10895
39.6449,11864
39.6506,10958
39.6563,11971
39.662,12340
39.6677,11785
39.6735,11269
39.6792,10871
39.6849,10019
39.6906,10358
39.6964,13653
39.7021,12566
39.7078,11715
39.7135,13624
39.7192,10049
39.725,10615
39.7307,11475
39.7364,12542
39.7421,13365
39.7478,12779
39.7536,13574
39.7593,13284
39.765,13813
39.7707,15039
39.7765,12522
39.7822,14531
39.7879,15098
39.7936,13283
39.7993,16204
39.8051,13334
39.8108,12664
39.8165,15277
39.8222,14663
39.828,14788
39.8337,14893
39.8394,15091
39.8451,13531
39.8508,14010
39.8566,14648
39.8623,15107
39.868,16482
39.8737,13231
39.8794,15834
39.8852,15901
39.8909,13669
39.8966,16522
39.9023,16855
39.9081,15248
39.9138,18155
39.9195,17587
39.9252,16615
39.931,17749
39.9367,17457
39.9424,16938
39.9481,18787
39.9538,18431
39.9596,19546
39.9653,17589
39.971,18950
39.9767,17852
39.9825,18634
39.9882,17806
39.9939,17455
39.9996,16432
40.0053,18558
40.0111,18070
40.0168,17365
40.0225,16856
40.0282,16778
40.034,17747
40.0397,18666
40.0454,20117
40.0511,17173
40.0568,19277
40.0626,21269
40.0683,19282
40.074,18478
40.0797,20034
40.0854,20580
40.0912,17854
40.0969,17620
40.1026,18429
40.1083,19414
40.114,20081
40.1198,18525
40.1255,19692
40.1312,19823
40.1369,21584
40.1427,20282
40.1484,20437
40.1541,21521
40.1598,21927
40.1656,21871
40.1713,22862
40.177,21942
40.1827,21737
40.1884,21063
40.1942,23081
40.1999,22466
40.2056,22906
40.2113,23156
40.2171,23599
40.2228,25114
40.2285,25690
40.2342,23135
40.2399,24648
40.2457,24908
40.2514,26382
40.2571,25162
40.2628,25866
40.2686,23736
40.2743,26590
40.28,27378
40.2857,24214
40.2914,25280
40.2972,27741
40.3029,26773
40.3086,26570
40.3143,25867
40.3201,26653
40.3258,24966
40.3315,26835
40.3372,27263
40.3429,26077
40.3486,26827
40.3544,26966
40.3601,28682
40.3658,28782
40.3715,30280
40.3773,27344
40.383,29489
40.3887,27181
40.3944,28747
40.4002,28164
40.4059,26584
40.4116,27104
40.4173,27858
40.4231,29780
40.4288,30057
40.4345,29791
40.4402,28981
40.4459,29962
40.4517,30108
40.4574,30380
40.4631,29140
40.4688,29593
40.4745,29085
40.4803,28110
40.486,30021
40.4917,29304
40.4974,28834
40.5032,28931
40.5089,30533
40.5146,32273
40.5203,31628
40.526,32619
40.5318,33329
40.5375,33421
40.5432,32238
40.5489,33393
40.5547,35222
40.5604,34686
40.5661,32769
40.5718,37500
40.5775,33968
40.5833,32516
40.589,33980
40.5947,33058
40.6004,34401
40.6062,35801
40.6119,34553
40.6176,37050
40.6233,35346
40.629,36228
40.6348,35079
40.6405,37147
40.6462,36904
40.6519,36408
40.6577,36050
40.6634,39083
40.6691,40146
40.6748,40751
40.6805,38099
40.6863,39213
40.692,41669
40.6977,38958
40.7034,38779
40.7092,41135
40.7149,41381
40.7206,39602
40.7263,38473
40.732,38513
40.7378,40091
40.7435,41229
40.7492,39550
40.7549,41149
40.7607,41698
40.7664,42727
40.7721,42261
40.7778,43042
40.7835,42787
40.7893,40348
40.795,42850
40.8007,42860
40.8064,44325
40.8121,44245
40.8179,48725
40.8236,48944
40.8293,50345
40.835,45787
40.8408,47853
40.8465,47299
40.8522,46413
40.8579,46685
40.8636,44532
40.8694,47181
40.8751,48491
40.8808,48185
40.8865,47445
40.8923,49799
40.898,50192
40.9037,49682
40.9094,50328
40.9151,49738
40.9209,49656
40.9266,49294
40.9323,53632
40.938,54204
40.9438,51733
40.9495,51701
40.9552,52473
40.9609,54998
40.9666,52666
40.9723,51719
40.9781,52586
40.9838,50823
40.9895,52332
40.9952,52981
41.001,51816
41.0067,53154
41.0124,50307
41.0181,53063
41.0239,53500
41.0296,53554
41.0353,54676
41.041,56183
41.0468,54320
41.0525,55874
41.0582,54575
41.0639,56199
41.0696,58906
41.0754,62478
41.0811,70016
41.0868,78475
41.0925,76607
41.0983,72279
41.104,67829
41.1097,69250
41.1154,68268
41.1211,72449
41.1269,71985
41.1326,73841
41.1383,77579
41.144,82182
41.1497,82946
41.1555,88891
41.1612,90487
41.1669,91594
41.1726,96649
41.1784,99914
41.1841,100371
41.1898,99395
41.1955,96881
41.2012,96677
41.207,95763
41.2127,98449
41.2184,94811
41.2241,94667
41.2298,92572
41.2356,90622
41.2413,87199
41.247,86479
41.2527,86313
41.2585,80050
41.2642,80281
41.2699,80787
41.2756,80804
41.2814,81326
41.2871,77467
41.2928,81975
41.2985,80821
41.3042,80610
41.31,81428
41.3157,81619
41.3214,82100
41.3271,76306
41.3329,81564
41.3386,81923
41.3443,82152
41.35,82057
41.3557,80408
41.3615,87032
41.3672,90397
41.3729,90546
41.3786,93231
41.3844,97757
41.3901,102667
41.3958,110455
41.4015,116282
41.4072,121019
41.413,123964
41.4187,123693
41.4244,123177
41.4301,127525
41.4359,119100
41.4416,117683
41.4473,118268
41.453,113326
41.4587,107754
41.4644,109034
41.4702,105821
41.4759,102558
41.4816,100963
41.4873,97234
41.4931,97371
41.4988,97656
41.5045,94019
41.5102,94428
41.516,99142
41.5217,95761
41.5274,100459
41.5331,93676
41.5388,96718
41.5446,97273
41.5503,98149
41.556,95102
41.5617,96193
41.5675,98249
41.5732,96622
41.5789,95276
41.5846,94899
41.5903,97409
41.5961,95114
41.6018,101826
41.6075,99813
41.6132,99019
41.619,104063
41.6247,107334
41.6304,107353
41.6361,108590
41.6418,107911
41.6476,111962
41.6533,112275
41.659,113643
41.6647,115474
41.6705,118588
41.6762,119379
41.6819,119060
41.6876,120997
41.6933,123061
41.6991,118137
41.7048,115679
41.7105,115018
41.7162,111949
41.722,115018
41.7277,114523
41.7334,113493
41.7391,116738
41.7448,118354
41.7506,115406
41.7563,126528
41.762,119803
41.7677,121748
41.7735,123228
41.7792,127409
41.7849,125232
41.7906,124385
41.7963,124009
41.8021,122331
41.8078,119796
41.8135,120723
41.8192,121231
41.8249,121161
41.8307,121152
41.8364,119102
41.8421,120523
41.8478,116129
41.8535,122316
41.8593,121544
41.865,123134
41.8707,122478
41.8764,124593
41.8822,121682
41.8879,123893
41.8936,126069
41.8993,123830
41.9051,125260
41.9108,122873
41.9165,127752
41.9222,129786
41.9279,128215
41.9337,129408
41.9394,130829
41.9451,130462
41.9508,129110
41.9566,131947
41.9623,131168
41.968,133292
41.9737,135808
41.9794,131116
41.9852,130896
41.9909,136067
41.9966,132634
42.0023,137007
42.0081,136132
42.0138,136482
42.0195,138541
42.0252,137818
42.0309,143831
42.0367,141478
42.0424,139168
42.0481,140861
42.0538,140544
42.0596,141094
42.0653,140824
42.071,143435
42.0767,147361
42.0824,146615
42.0881,143752
42.0939,147788
42.0996,148375
42.1053,150182
42.111,148515
42.1168,153610
42.1225,150355
42.1282,151831
42.1339,150720
42.1397,152191
42.1454,149624
42.1511,154244
42.1568,154411
42.1625,158687
42.1683,160931
42.174,162870
42.1797,160866
42.1854,159345
42.1912,157991
42.1969,161942
42.2026,158525
42.2083,167336
42.214,168141
42.2198,192816
42.2255,208807
42.2312,217796
42.2369,212892
42.2427,197568
42.2484,183078
42.2541,184393
42.2598,181371
42.2655,178621
42.2713,179426
42.277,173647
42.2827,174579
42.2884,177460
42.2942,177808
42.2999,176434
42.3056,178329
42.3113,181315
42.317,183746
42.3227,183869
42.3285,186884
42.3342,187675
42.3399,184992
42.3456,184697
42.3514,185432
42.3571,183067
42.3628,185622
42.3685,186295
42.3743,189332
42.38,187910
42.3857,189600
42.3914,193502
42.3972,190779
42.4029,194176
42.4086,198423
42.4143,197294
42.42,188251
42.4258,195459
42.4315,200808
42.4372,194451
42.4429,200989
42.4487,199236
42.4544,204198
42.4601,205970
42.4658,207978
42.4715,214745
42.4773,219093
42.483,226824
42.4887,231927
42.4944,229014
42.5001,237249
42.5059,239947
42.5116,234012
42.5173,232145
42.523,233886
42.5288,235186
42.5345,236660
42.5402,233039
42.5459,228829
42.5516,231906
42.5574,234360
42.5631,238097
42.5688,225602
42.5745,228932
42.5802,230811
42.586,239304
42.5917,234638
42.5974,232214
42.6031,238306
42.6089,233014
42.6146,231829
42.6203,234731
42.626,239110
42.6318,236968
42.6375,238995
42.6432,241859
42.6489,238920
42.6546,236595
42.6604,242184
42.6661,244022
42.6718,241399
42.6775,245325
42.6833,245527
42.689,237602
42.6947,244307
42.7004,243211
42.7061,248402
42.7119,242637
42.7176,252504
42.7233,253413
42.729,254869
42.7348,248539
42.7405,249915
42.7462,256453
42.7519,251505
42.7576,256247
42.7634,260420
42.7691,256971
42.7748,255979
42.7805,256724
42.7863,267904
42.792,262132
42.7977,268332
42.8034,303081
42.8091,329560
42.8149,337766
42.8206,318981
42.8263,307199
42.832,292481
42.8377,299050
42.8435,295254
42.8492,292041
42.8549,306214
42.8606,306610
42.8664,308708
42.8721,301943
42.8778,301629
42.8835,304355
42.8892,309948
42.895,304397
42.9007,309391
42.9064,315104
42.9121,313023
42.9179,317475
42.9236,320295
42.9293,317702
42.935,326601
42.9407,330009
42.9465,329677
42.9522,337969
42.9579,342381
42.9636,349096
42.9693,350777
42.9751,354876
42.9808,351103
42.9865,351753
42.9922,349640
42.998,355565
43.0037,350041
43.0094,350100
43.0151,340813
43.0209,340928
43.0266,324009
43.0323,320170
43.038,315956
43.0437,309879
43.0495,312082
43.0552,316284
43.0609,311017
43.0666,312733
43.0724,303382
43.0781,308677
43.0838,306370
43.0895,306577
43.0952,310518
43.101,308769
43.1067,308331
43.1124,309180
43.1181,304762
43.1239,308909
43.1296,305854
43.1353,307015
43.141,304599
43.1467,303047
43.1525,303132
43.1582,304793
43.1639,301336
43.1696,311222
43.1754,341733
43.1811,387965
43.1868,430844
43.1925,430613
43.1982,394366
43.2039,370251
43.2097,345434
43.2154,338252
43.2211,338882
43.2268,323036
43.2326,324508
43.2383,324057
43.244,325089
43.2497,327493
43.2555,330284
43.2612,332186
43.2669,328013
43.2726,325154
43.2783,325162
43.2841,320890
43.2898,322038
43.2955,320485
43.3012,319967
43.307,322761
43.3127,329752
43.3184,331656
43.3241,331971
43.3298,325034
43.3356,326717
43.3413,316286
43.347,317279
43.3527,312332
43.3585,321198
43.3642,318678
43.3699,318813
43.3756,312190
43.3813,308566
43.3871,314504
43.3928,314186
43.3985,318929
43.4042,318552
43.41,308405
43.4157,316054
43.4214,322627
43.4271,319963
43.4328,321776
43.4385,321164
43.4443,316149
43.45,312629
43.4557,313740
43.4614,316218
43.4672,314788
43.4729,318152
43.4786,316543
43.4843,317171
43.4901,321066
43.4958,319682
43.5015,321079
43.5072,330949
43.513,335062
43.5187,337855
43.5244,348243
43.5301,357440
43.5358,367442
43.5416,370395
43.5473,379528
43.553,381200
43.5587,391922
43.5644,387622
43.5702,394715
43.5759,396599
43.5816,396923
43.5873,393007
43.5931,382656
43.5988,378122
43.6045,375045
43.6102,367844
43.6159,368846
43.6217,369903
43.6274,364635
43.6331,377519
43.6388,377903
43.6446,369777
43.6503,377256
43.656,376167
43.6617,373874
43.6674,370302
43.6732,370319
43.6789,367240
43.6846,369908
43.6903,365586
43.6961,361808
43.7018,361676
43.7075,357603
43.7132,359567
43.7189,355119
43.7247,360769
43.7304,360546
43.7361,374005
43.7418,377094
43.7476,380435
43.7533,394684
43.759,399008
43.7647,406493
43.7704,408414
43.7762,406778
43.7819,393913
43.7876,383784
43.7933,378855
43.7991,367420
43.8048,363575
43.8105,361323
43.8162,351178
43.8219,351081
43.8277,344292
43.8334,343990
43.8391,337925
43.8448,348826
43.8506,352156
43.8563,382612
43.862,436697
43.8677,503251
43.8734,551836
43.8792,538926
43.8849,473638
43.8906,417498
43.8963,375245
43.902,368175
43.9078,350632
43.9135,349050
43.9192,343952
43.9249,340569
43.9307,336918
43.9364,332227
43.9421,337256
43.9478,334674
43.9535,334142
43.9593,327636
43.965,335004
43.9707,331193
43.9764,332348
43.9822,327570
43.9879,326753
43.9936,325341
43.9993,322854
44.005,330578
44.0108,327463
44.0165,332428
44.0222,331043
44.0279,329221
44.0337,329559
44.0394,330849
44.0451,326243
44.0508,323201
44.0565,326065
44.0622,322591
44.068,325484
44.0737,329940
44.0794,325734
44.0851,327105
44.0909,322639
44.0966,317164
44.1023,323307
44.108,322709
44.1138,326181
44.1195,329353
44.1252,323042
44.1309,319076
44.1367,319948
44.1424,325112
44.1481,324673
44.1538,323085
44.1595,322897
44.1653,323513
44.171,321946
44.1767,317981
44.1824,320643
44.1882,320024
44.1939,320512
44.1996,317880
44.2053,325228
44.211,320044
44.2168,324290
44.2225,320830
44.2282,320085
44.2339,318047
44.2396,316495
44.2454,313701
44.2511,322048
44.2568,321399
44.2625,336651
44.2683,362475
44.274,401339
44.2797,449434
44.2854,475541
44.2911,466623
44.2969,437990
44.3026,407063
44.3083,387684
44.314,368526
44.3197,360044
44.3255,353573
44.3312,353473
44.3369,353006
44.3426,342093
44.3484,342473
44.3541,336674
44.3598,337921
44.3655,341202
44.3713,332236
44.377,332400
44.3827,336988
44.3884,330242
44.3941,326611
44.3999,331955
44.4056,331896
44.4113,330850
44.417,325372
44.4228,330794
44.4285,330312
44.4342,325785
44.4399,324109
44.4456,324436
44.4514,323430
44.4571,326758
44.4628,327158
44.4685,324061
44.4743,325532
44.48,330788
44.4857,337913
44.4914,339481
44.4971,338703
44.5029,330543
44.5086,329482
44.5143,326772
44.52,323234
44.5258,329487
44.5315,327203
44.5372,322407
44.5429,326222
44.5486,321200
44.5543,321374
44.5601,320273
44.5658,321757
44.5715,322386
44.5772,319015
44.583,325037
44.5887,320856
44.5944,321311
44.6001,320056
44.6059,322328
44.6116,320179
44.6173,317390
44.623,318525
44.6287,321818
44.6345,326927
44.6402,324873
44.6459,317921
44.6516,321138
44.6574,319055
44.6631,325404
44.6688,323932
44.6745,321704
44.6802,322211
44.686,325639
44.6917,324942
44.6974,322335
44.7031,319225
44.7089,318359
44.7146,323023
44.7203,319625
44.726,320525
44.7317,322081
44.7375,320588
44.7432,320789
44.7489,320754
44.7546,317535
44.7604,316606
44.7661,310478
44.7718,317854
44.7775,322339
44.7832,316285
44.789,323350
44.7947,323053
44.8004,321974
44.8061,324910
44.8119,316338
44.8176,316186
44.8233,320621
44.829,323014
44.8347,319327
44.8405,318516
44.8462,320570
44.8519,320488
44.8576,317598
44.8634,320672
44.8691,317652
44.8748,312339
44.8805,313291
44.8862,319941
44.892,316622
44.8977,317551
44.9034,314157
44.9091,314607
44.9148,315157
44.9206,312646
44.9263,312528
44.932,312410
44.9377,317700
44.9435,320049
44.9492,312408
44.9549,314838
44.9606,315482
44.9663,311623
44.9721,316523
44.9778,318003
44.9835,317945
44.9892,318056
44.995,318307
