D:\MassHunter\GCMS\1\data\Stachys_bullata\FINAL_RUNS\SCI16.D 18 Mar 20  03:56 am
Start of data points
3.09267,11752
3.0984,11434
3.10412,11756
3.10983,11569
3.11557,12790
3.12128,13124
3.127,13157
3.13272,12806
3.13845,11542
3.14417,10911
3.14988,12141
3.15562,10625
3.16133,10515
3.16705,9630
3.17278,9995
3.1785,10112
3.18422,10175
3.18995,9660
3.19567,9871
3.20138,8745
3.20712,9336
3.21283,8933
3.21855,8658
3.22428,8554
3.23,9200
3.23572,8280
3.24145,8290
3.24717,8678
3.25288,8633
3.25862,9216
3.26433,8312
3.27005,7469
3.27578,8451
3.2815,7988
3.28722,9319
3.29293,8259
3.29867,8517
3.30438,7711
3.3101,8009
3.31583,7496
3.32155,8181
3.32727,7633
3.333,8523
3.33872,7186
3.34443,6581
3.35017,6185
3.35588,5642
3.3616,5468
3.36733,5664
3.37305,6502
3.37877,5524
3.3845,5491
3.39022,5700
3.39593,5455
3.40167,5787
3.40738,5841
3.4131,5514
3.41883,5703
3.42455,4973
3.43027,4820
3.436,5891
3.44172,5253
3.44743,5282
3.45317,4907
3.45888,5270
3.4646,4908
3.47032,4636
3.47605,4583
3.48177,5597
3.48748,5189
3.49322,4741
3.49893,5116
3.50465,4182
3.51038,4633
3.5161,3365
3.52182,3573
3.52755,3152
3.53327,3570
3.53898,3114
3.54472,3087
3.55043,3293
3.55615,3564
3.56188,3722
3.5676,3513
3.57332,3551
3.57905,3145
3.58477,2600
3.59048,3408
3.59622,3187
3.60193,3164
3.60765,3046
3.61338,3133
3.6191,3585
3.62482,3275
3.63053,2964
3.63627,3313
3.64198,3031
3.6477,2654
3.65343,2657
3.65915,3401
3.66487,3031
3.6706,2702
3.67632,2955
3.68203,3248
3.68777,3431
3.69348,3430
3.6992,3076
3.70493,2806
3.71065,2801
3.71637,2898
3.7221,2851
3.72782,2852
3.73353,2951
3.73927,2947
3.74498,2728
3.7507,2769
3.75643,3106
3.76215,2757
3.76787,2711
3.7736,2832
3.77932,2456
3.78503,3216
3.79077,2795
3.79648,2694
3.8022,3175
3.80792,2759
3.81365,3314
3.81937,2386
3.82508,2756
3.83082,3083
3.83653,2962
3.84225,3267
3.84798,2770
3.8537,2470
3.85942,3255
3.86515,3013
3.87087,3039
3.87658,2531
3.88232,3073
3.88803,2760
3.89375,3240
3.89948,3248
3.9052,3230
3.91092,4087
3.91665,2683
3.92237,3784
3.92808,3559
3.93382,3940
3.93953,4118
3.94525,3620
3.95098,3183
3.9567,3743
3.96242,3560
3.96815,3841
3.97387,5556
3.97958,9542
3.9853,12355
3.99103,15784
3.99675,17074
4.00247,17419
4.0082,14109
4.01392,12304
4.01963,9429
4.02537,7911
4.03108,6182
4.0368,6227
4.04253,5685
4.04825,5194
4.05397,4439
4.0597,3934
4.06542,3017
4.07113,3764
4.07687,2884
4.08258,3204
4.0883,3051
4.09403,1968
4.09975,3340
4.10547,2392
4.1112,2596
4.11692,2537
4.12263,2911
4.12837,2865
4.13408,4011
4.1398,3237
4.14553,3394
4.15125,3484
4.15697,3413
4.16268,3576
4.16842,4129
4.17413,2942
4.17985,3742
4.18558,2424
4.1913,2419
4.19702,2274
4.20275,2731
4.20847,2339
4.21418,2838
4.21992,2128
4.22563,2513
4.23135,2325
4.23708,2535
4.2428,2800
4.24852,3300
4.25425,3472
4.25997,2431
4.26568,2989
4.27142,3183
4.27713,2306
4.28285,2905
4.28858,2818
4.2943,2709
4.30002,2923
4.30575,3180
4.31147,2659
4.31718,2663
4.3229,3121
4.32863,2714
4.33435,3326
4.34007,3045
4.3458,2957
4.35152,3354
4.35723,2833
4.36297,3521
4.36868,2963
4.3744,3092
4.38013,3532
4.38585,3037
4.39157,2780
4.3973,1793
4.40302,1913
4.40873,1807
4.41447,1897
4.42018,1940
4.4259,1861
4.43163,1927
4.43735,1871
4.44307,1717
4.4488,2340
4.45452,1556
4.46023,1876
4.46597,1651
4.47168,1945
4.4774,1964
4.48313,1964
4.48885,1831
4.49457,1450
4.50028,2037
4.50602,1744
4.51173,1808
4.51745,2164
4.52318,1976
4.5289,1772
4.53462,1708
4.54035,2260
4.54607,1884
4.55178,2239
4.55752,1660
4.56323,1576
4.56895,1744
4.57468,1743
4.5804,1720
4.58612,1553
4.59185,1614
4.59757,1943
4.60328,1376
4.60902,2051
4.61473,1708
4.62045,1652
4.62618,1520
4.6319,1722
4.63762,1424
4.64335,1647
4.64907,1409
4.65478,1564
4.66052,1483
4.66623,1741
4.67195,1323
4.67767,1966
4.6834,1846
4.68912,1760
4.69483,1880
4.70057,1849
4.70628,2183
4.712,3052
4.71773,9009
4.72345,16977
4.72917,21814
4.7349,24545
4.74062,24744
4.74633,20129
4.75207,14708
4.75778,11098
4.7635,8768
4.76923,6964
4.77495,5200
4.78067,4692
4.7864,3980
4.79212,2821
4.79783,2302
4.80357,2238
4.80928,2217
4.815,1843
4.82073,1982
4.82645,1470
4.83217,1902
4.83788,2024
4.84362,1355
4.84933,2091
4.85505,1373
4.86078,1245
4.8665,1709
4.87222,1411
4.87795,1603
4.88367,1777
4.88938,1370
4.89512,1575
4.90083,1400
4.90655,1581
4.91228,1807
4.918,1786
4.92372,1647
4.92945,1359
4.93517,1359
4.94088,1473
4.94662,1418
4.95233,1679
4.95805,1376
4.96378,1816
4.9695,2394
4.97522,2463
4.98095,2403
4.98667,2381
4.99238,2394
4.99812,2011
5.00383,1912
5.00955,1982
5.01527,1569
5.021,2026
5.02672,1388
5.03243,1550
5.03817,1339
5.04388,1427
5.0496,1536
5.05533,1563
5.06105,1631
5.06677,1446
5.0725,1538
5.07822,1823
5.08393,1231
5.08967,1636
5.09538,1593
5.1011,1529
5.10683,1241
5.11255,1540
5.11827,1618
5.124,1481
5.12972,1282
5.13543,1417
5.14117,1358
5.14688,1289
5.1526,1806
5.15833,1097
5.16405,1563
5.16977,1574
5.1755,1268
5.18122,1764
5.18693,1312
5.19265,1101
5.19838,1481
5.2041,1358
5.20982,1256
5.21555,1408
5.22127,1738
5.22698,1068
5.23272,1553
5.23843,1344
5.24415,1469
5.24988,1285
5.2556,1619
5.26132,1417
5.26705,1494
5.27277,1576
5.27848,1465
5.28422,1691
5.28993,1620
5.29565,1846
5.30138,1611
5.3071,1331
5.31282,1252
5.31855,1493
5.32427,1264
5.32998,1296
5.33572,1811
5.34143,1257
5.34715,1513
5.35287,1392
5.3586,1374
5.36432,1666
5.37003,1539
5.37577,1428
5.38148,1320
5.3872,1268
5.39293,1422
5.39865,1571
5.40437,1706
5.4101,1328
5.41582,1182
5.42153,1362
5.42727,1287
5.43298,1350
5.4387,1454
5.44443,1188
5.45015,1484
5.45587,1179
5.4616,1483
5.46732,1727
5.47303,1328
5.47877,1303
5.48448,1220
5.4902,979
5.49593,1566
5.50165,1282
5.50737,1621
5.5131,1131
5.51882,1517
5.52453,1590
5.53025,1343
5.53598,1140
5.5417,1276
5.54742,1456
5.55315,1319
5.55887,1432
5.56458,1166
5.57032,2022
5.57603,4577
5.58175,8292
5.58748,13380
5.5932,16968
5.59892,17260
5.60465,14985
5.61037,11798
5.61608,8932
5.62182,7083
5.62753,4576
5.63325,3512
5.63898,2485
5.6447,2457
5.65042,2037
5.65615,1980
5.66187,1647
5.66758,1510
5.67332,1471
5.67903,1480
5.68475,865
5.69048,1631
5.6962,1343
5.70192,1383
5.70763,1293
5.71337,1027
5.71908,1164
5.7248,1353
5.73053,1324
5.73625,1564
5.74197,1366
5.7477,1280
5.75342,1465
5.75913,1343
5.76487,1336
5.77058,1126
5.7763,1148
5.78203,1220
5.78775,1410
5.79347,1383
5.7992,1465
5.80492,1135
5.81063,1094
5.81637,1288
5.82208,1277
5.8278,1682
5.83353,825
5.83925,899
5.84497,1107
5.8507,1364
5.85642,1164
5.86213,1270
5.86787,1398
5.87358,1494
5.8793,1336
5.88502,1271
5.89075,1325
5.89647,983
5.90218,1173
5.90792,1397
5.91363,1231
5.91935,1082
5.92508,1059
5.9308,1205
5.93652,1284
5.94225,1349
5.94797,974
5.95368,1122
5.95942,1142
5.96513,1357
5.97085,1110
5.97658,1052
5.9823,1359
5.98802,1335
5.99375,1598
5.99947,1488
6.00518,1702
6.01092,1285
6.01663,1324
6.02235,974
6.02808,1195
6.0338,1107
6.03952,994
6.04523,1195
6.05097,837
6.05668,1295
6.0624,1202
6.06813,1217
6.07385,1017
6.07957,1216
6.0853,1049
6.09102,1346
6.09673,1454
6.10247,1243
6.10818,1105
6.1139,1116
6.11963,1097
6.12535,1220
6.13107,1406
6.1368,1076
6.14252,974
6.14823,1512
6.15397,1101
6.15968,1204
6.1654,1157
6.17113,1074
6.17685,1241
6.18257,1603
6.1883,1125
6.19402,1318
6.19973,1008
6.20547,1163
6.21118,1352
6.2169,952
6.22262,1577
6.22835,881
6.23407,1194
6.23978,1235
6.24552,1344
6.25123,1255
6.25695,1248
6.26268,1337
6.2684,1379
6.27412,1354
6.27985,2071
6.28557,1197
6.29128,1523
6.29702,1190
6.30273,1127
6.30845,1282
6.31418,1044
6.3199,1156
6.32562,1158
6.33135,997
6.33707,2203
6.34278,3166
6.34852,4029
6.35423,4848
6.35995,4759
6.36568,4634
6.3714,3320
6.37712,2967
6.38283,3230
6.38857,2217
6.39428,1916
6.4,1953
6.40573,1123
6.41145,1125
6.41717,1576
6.4229,1095
6.42862,1058
6.43433,1061
6.44007,1513
6.44578,952
6.4515,1016
6.45723,1173
6.46295,1398
6.46867,1238
6.4744,1013
6.48012,1044
6.48583,824
6.49157,1011
6.49728,884
6.503,1244
6.50873,1049
6.51445,831
6.52017,1075
6.5259,955
6.53162,1101
6.53733,1226
6.54307,954
6.54878,885
6.5545,1178
6.56022,1151
6.56595,1065
6.57167,1109
6.57738,906
6.58312,1400
6.58883,892
6.59455,1026
6.60028,981
6.606,1191
6.61172,932
6.61745,1059
6.62317,896
6.62888,820
6.63462,1269
6.64033,1098
6.64605,966
6.65178,1111
6.6575,616
6.66322,870
6.66895,1429
6.67467,1077
6.68038,989
6.68612,1327
6.69183,1051
6.69755,1346
6.70328,729
6.709,1344
6.71472,1080
6.72045,1072
6.72617,918
6.73188,1134
6.7376,902
6.74333,1193
6.74905,1075
6.75477,708
6.7605,899
6.76622,866
6.77193,1190
6.77767,834
6.78338,833
6.7891,1101
6.79483,1193
6.80055,1143
6.80627,951
6.812,863
6.81772,1222
6.82343,1256
6.82917,1043
6.83488,1165
6.8406,1141
6.84633,1197
6.85205,1095
6.85777,1213
6.8635,794
6.86922,938
6.87493,803
6.88067,913
6.88638,973
6.8921,887
6.89783,536
6.90355,696
6.90927,853
6.91498,987
6.92072,1087
6.92643,986
6.93215,1031
6.93788,957
6.9436,950
6.94932,881
6.95505,1132
6.96077,736
6.96648,939
6.97222,876
6.97793,807
6.98365,870
6.98938,938
6.9951,1138
7.00082,1014
7.00655,858
7.01227,1196
7.01798,771
7.02372,984
7.02943,976
7.03515,692
7.04088,692
7.0466,1172
7.05232,1087
7.05805,1054
7.06377,665
7.06948,753
7.07522,781
7.08093,1013
7.08665,862
7.09237,884
7.0981,1003
7.10382,1024
7.10953,1106
7.11527,952
7.12098,699
7.1267,971
7.13243,892
7.13815,894
7.14387,1040
7.1496,727
7.15532,1068
7.16103,811
7.16677,1284
7.17248,939
7.1782,943
7.18393,1018
7.18965,876
7.19537,971
7.2011,726
7.20682,706
7.21253,1031
7.21827,924
7.22398,973
7.2297,1177
7.23543,782
7.24115,1136
7.24687,925
7.25258,728
7.25832,991
7.26403,1404
7.26975,1243
7.27548,1190
7.2812,890
7.28692,734
7.29265,912
7.29837,1206
7.30408,806
7.30982,943
7.31553,1181
7.32125,986
7.32698,941
7.3327,1492
7.33842,1179
7.34415,750
7.34987,834
7.35558,1046
7.36132,960
7.36703,787
7.37275,1065
7.37848,1005
7.3842,483
7.38992,881
7.39565,761
7.40137,1061
7.40708,1088
7.41282,1091
7.41853,1044
7.42425,1156
7.42997,1380
7.4357,928
7.44142,1363
7.44713,1212
7.45287,985
7.45858,948
7.4643,934
7.47003,795
7.47575,826
7.48147,1182
7.4872,920
7.49292,941
7.49863,1148
7.50437,1106
7.51008,882
7.5158,1221
7.52153,730
7.52725,953
7.53297,905
7.5387,917
7.54442,1092
7.55013,1126
7.55587,949
7.56158,662
7.5673,986
7.57303,737
7.57875,948
7.58447,845
7.59018,866
7.59592,1111
7.60163,865
7.60735,706
7.61308,1017
7.6188,775
7.62452,842
7.63025,1026
7.63597,780
7.64168,1072
7.64742,634
7.65313,870
7.65885,797
7.66458,880
7.6703,1095
7.67602,943
7.68175,862
7.68747,1014
7.69318,1175
7.69892,658
7.70463,978
7.71035,774
7.71608,447
7.7218,1091
7.72752,968
7.73325,904
7.73897,1030
7.74468,861
7.75042,747
7.75613,664
7.76185,681
7.76757,1272
7.7733,800
7.77902,1098
7.78473,655
7.79047,862
7.79618,1291
7.8019,895
7.80763,1115
7.81335,731
7.81907,630
7.8248,639
7.83052,946
7.83623,728
7.84197,1057
7.84768,613
7.8534,965
7.85913,704
7.86485,923
7.87057,961
7.8763,1050
7.88202,718
7.88773,613
7.89347,1203
7.89918,1004
7.9049,1019
7.91063,715
7.91635,968
7.92207,868
7.9278,1013
7.93352,768
7.93923,1028
7.94495,1094
7.95068,652
7.9564,697
7.96212,814
7.96785,745
7.97357,704
7.97928,865
7.98502,840
7.99073,893
7.99645,1066
8.00218,717
8.0079,786
8.01362,1314
8.01935,1466
8.02507,2011
8.03078,2449
8.03652,3952
8.04223,4349
8.04795,3416
8.05368,3171
8.0594,2250
8.06512,1674
8.07085,1329
8.07657,1274
8.08228,898
8.08802,977
8.09373,1093
8.09945,804
8.10518,718
8.1109,579
8.11662,966
8.12233,766
8.12807,1340
8.13378,917
8.1395,832
8.14523,741
8.15095,765
8.15667,696
8.1624,1104
8.16812,934
8.17383,877
8.17957,581
8.18528,628
8.191,736
8.19673,528
8.20245,925
8.20817,1022
8.2139,869
8.21962,887
8.22533,717
8.23107,620
8.23678,854
8.2425,708
8.24823,783
8.25395,816
8.25967,811
8.2654,773
8.27112,972
8.27683,798
8.28255,828
8.28828,744
8.294,782
8.29972,535
8.30545,1040
8.31117,727
8.31688,928
8.32262,622
8.32833,948
8.33405,931
8.33978,576
8.3455,633
8.35122,773
8.35695,606
8.36267,831
8.36838,900
8.37412,895
8.37983,985
8.38555,776
8.39128,1044
8.397,643
8.40272,857
8.40845,652
8.41417,898
8.41988,857
8.42562,606
8.43133,771
8.43705,507
8.44278,697
8.4485,707
8.45422,877
8.45993,821
8.46567,713
8.47138,1012
8.4771,747
8.48283,845
8.48855,1176
8.49427,817
8.5,632
8.50572,1077
8.51143,1260
8.51717,1534
8.52288,1585
8.5286,1810
8.53433,1325
8.54005,1248
8.54577,1140
8.5515,804
8.55722,592
8.56293,792
8.56867,782
8.57438,721
8.5801,843
8.58583,663
8.59155,964
8.59727,1117
8.603,825
8.60872,1046
8.61443,1121
8.62017,1065
8.62588,965
8.6316,1150
8.63732,1252
8.64305,749
8.64877,1106
8.65448,1755
8.66022,1729
8.66593,3035
8.67165,4114
8.67738,5546
8.6831,6339
8.68882,9981
8.69455,5932
8.70027,7933
8.70598,7154
8.71172,3229
8.71743,2974
8.72315,3346
8.72888,2018
8.7346,1973
8.74032,1800
8.74605,1204
8.75177,1124
8.75748,1286
8.76322,1578
8.76893,1463
8.77465,1410
8.78038,1286
8.7861,1642
8.79182,1585
8.79753,2093
8.80327,1685
8.80898,1565
8.8147,1613
8.82043,1966
8.82615,1416
8.83187,1858
8.8376,1445
8.84332,1700
8.84903,1244
8.85477,1531
8.86048,1423
8.8662,1476
8.87193,1331
8.87765,1362
8.88337,1462
8.8891,1554
8.89482,1754
8.90053,1430
8.90627,1511
8.91198,1065
8.9177,1602
8.92343,1429
8.92915,1568
8.93487,1633
8.9406,1442
8.94632,1760
8.95203,1353
8.95777,1954
8.96348,1537
8.9692,1523
8.97492,1551
8.98065,1446
8.98637,1339
8.99208,1727
8.99782,1513
9.00353,1902
9.00925,1740
9.01498,1633
9.0207,1861
9.02642,1482
9.03215,1627
9.03787,1340
9.04358,1635
9.04932,1616
9.05503,1594
9.06075,1606
9.06648,1636
9.0722,1737
9.07792,1951
9.08365,1345
9.08937,1671
9.09508,1582
9.10082,1586
9.10653,1974
9.11225,1737
9.11798,1466
9.1237,1720
9.12942,1916
9.13515,1845
9.14087,1669
9.14658,1547
9.1523,1201
9.15803,1791
9.16375,1790
9.16947,1824
9.1752,1175
9.18092,1434
9.18663,1385
9.19237,1556
9.19808,1676
9.2038,1311
9.20953,1914
9.21525,1765
9.22097,1519
9.2267,1757
9.23242,1889
9.23813,1532
9.24387,1517
9.24958,1395
9.2553,1471
9.26103,1842
9.26675,1737
9.27247,1832
9.2782,1927
9.28392,1372
9.28963,1274
9.29537,1718
9.30108,1611
9.3068,2012
9.31253,1618
9.31825,1828
9.32397,1598
9.32968,1642
9.33542,1838
9.34113,1254
9.34685,1801
9.35258,1384
9.3583,1788
9.36402,1239
9.36975,1588
9.37547,1468
9.38118,1517
9.38692,1574
9.39263,1783
9.39835,1668
9.40408,1414
9.4098,1063
9.41552,1375
9.42125,1773
9.42697,1251
9.43268,1287
9.43842,1301
9.44413,1444
9.44985,1533
9.45558,1919
9.4613,1510
9.46702,1416
9.47275,1444
9.47847,1959
9.48418,1445
9.4899,1672
9.49563,2095
9.50135,1963
9.50707,1379
9.5128,1440
9.51852,1727
9.52423,2103
9.52997,3209
9.53568,4103
9.5414,4018
9.54713,6511
9.55285,5800
9.55857,5810
9.5643,4579
9.57002,4648
9.57573,4096
9.58147,2804
9.58718,2508
9.5929,2099
9.59863,1381
9.60435,1826
9.61007,2186
9.6158,1313
9.62152,2048
9.62723,1803
9.63297,1340
9.63868,1588
9.6444,1413
9.65013,1597
9.65585,1690
9.66157,1478
9.66728,1316
9.67302,1625
9.67873,1304
9.68445,1547
9.69018,1458
9.6959,1298
9.70162,1005
9.70735,1138
9.71307,1261
9.71878,1040
9.72452,1555
9.73023,1283
9.73595,1289
9.74168,1353
9.7474,1151
9.75312,1303
9.75885,1740
9.76457,1368
9.77028,1610
9.77602,1361
9.78173,1641
9.78745,1070
9.79318,1695
9.7989,1308
9.80462,1130
9.81035,1228
9.81607,1519
9.82178,1246
9.8275,1308
9.83323,1258
9.83895,1648
9.84467,1730
9.8504,1862
9.85612,1720
9.86183,2775
9.86757,2961
9.87328,3473
9.879,4703
9.88473,4911
9.89045,4607
9.89617,4119
9.9019,3721
9.90762,2226
9.91333,2111
9.91907,1509
9.92478,1851
9.9305,1089
9.93623,1093
9.94195,1313
9.94767,1768
9.9534,1007
9.95912,1509
9.96483,1418
9.97057,1485
9.97628,1471
9.982,1347
9.98773,1460
9.99345,1322
9.99917,1763
10.0049,1458
10.0106,1668
10.0163,1756
10.0221,1459
10.0278,3135
10.0335,4982
10.0392,7970
10.045,10895
10.0507,15851
10.0564,17673
10.0621,18134
10.0678,16723
10.0736,14229
10.0793,9101
10.085,7119
10.0907,5919
10.0965,2903
10.1022,2405
10.1079,1559
10.1136,1576
10.1193,1200
10.1251,1233
10.1308,1674
10.1365,1384
10.1422,1711
10.148,1229
10.1537,1508
10.1594,1479
10.1651,1530
10.1708,1222
10.1766,1476
10.1823,1286
10.188,1424
10.1937,2435
10.1994,1174
10.2052,992
10.2109,1477
10.2166,1603
10.2223,3089
10.2281,3889
10.2338,5736
10.2395,7280
10.2452,7203
10.2509,6909
10.2567,5786
10.2624,4276
10.2681,3755
10.2738,2397
10.2796,2263
10.2853,1851
10.291,1389
10.2967,1150
10.3024,1287
10.3082,2312
10.3139,1124
10.3196,1852
10.3253,1079
10.3311,1231
10.3368,1143
10.3425,906
10.3482,1583
10.3539,1205
10.3597,1424
10.3654,1047
10.3711,1435
10.3768,1581
10.3826,1624
10.3883,1472
10.394,1491
10.3997,1202
10.4054,1241
10.4112,1560
10.4169,1312
10.4226,1235
10.4283,973
10.4341,1321
10.4398,1423
10.4455,1249
10.4512,1226
10.4569,1675
10.4627,1208
10.4684,1344
10.4741,1452
10.4798,1462
10.4856,3800
10.4913,6531
10.497,9571
10.5027,9545
10.5084,9782
10.5142,9050
10.5199,8413
10.5256,6355
10.5313,5447
10.537,4295
10.5428,3929
10.5485,2555
10.5542,2780
10.5599,2743
10.5657,2171
10.5714,1500
10.5771,1158
10.5828,1208
10.5885,1326
10.5943,1323
10.6,1353
10.6057,1340
10.6114,1074
10.6172,1657
10.6229,1461
10.6286,1365
10.6343,1449
10.64,1366
10.6458,1407
10.6515,1259
10.6572,1819
10.6629,1262
10.6687,1053
10.6744,1014
10.6801,1311
10.6858,1179
10.6915,1387
10.6973,1617
10.703,1526
10.7087,1165
10.7144,1768
10.7202,3151
10.7259,7619
10.7316,17691
10.7373,34850
10.743,58841
10.7488,79338
10.7545,89772
10.7602,84690
10.7659,70508
10.7717,56005
10.7774,37294
10.7831,26137
10.7888,17145
10.7945,10848
10.8003,7798
10.806,5944
10.8117,4906
10.8174,3340
10.8232,3272
10.8289,2536
10.8346,2750
10.8403,2205
10.846,1914
10.8518,1572
10.8575,1705
10.8632,1725
10.8689,1402
10.8746,2032
10.8804,1763
10.8861,1421
10.8918,1151
10.8975,1462
10.9033,1651
10.909,1658
10.9147,1515
10.9204,1362
10.9261,1925
10.9319,1475
10.9376,1043
10.9433,1466
10.949,1608
10.9548,1719
10.9605,1982
10.9662,1148
10.9719,1427
10.9776,1870
10.9834,1440
10.9891,1345
10.9948,1390
11.0005,1644
11.0063,1411
11.012,1560
11.0177,1663
11.0234,2332
11.0291,2162
11.0349,1431
11.0406,1490
11.0463,1308
11.052,1435
11.0578,1667
11.0635,891
11.0692,1368
11.0749,1480
11.0806,1064
11.0864,1133
11.0921,1132
11.0978,1496
11.1035,1678
11.1093,1664
11.115,1117
11.1207,1219
11.1264,1663
11.1321,1302
11.1379,1472
11.1436,1202
11.1493,1455
11.155,1463
11.1608,1227
11.1665,1542
11.1722,1187
11.1779,1653
11.1836,894
11.1894,1670
11.1951,1328
11.2008,1453
11.2065,1251
11.2122,1324
11.218,870
11.2237,1328
11.2294,1214
11.2351,1281
11.2409,1025
11.2466,960
11.2523,1395
11.258,907
11.2637,898
11.2695,1540
11.2752,1372
11.2809,977
11.2866,1180
11.2924,849
11.2981,1241
11.3038,1186
11.3095,1553
11.3152,835
11.321,1028
11.3267,1461
11.3324,881
11.3381,1336
11.3439,1380
11.3496,1469
11.3553,1043
11.361,1113
11.3667,1140
11.3725,1554
11.3782,1410
11.3839,1269
11.3896,1060
11.3954,1108
11.4011,1127
11.4068,1000
11.4125,1199
11.4182,1477
11.424,1285
11.4297,1052
11.4354,1033
11.4411,910
11.4469,1368
11.4526,1261
11.4583,1076
11.464,1222
11.4697,1022
11.4755,1140
11.4812,1101
11.4869,1989
11.4926,1191
11.4984,1599
11.5041,1083
11.5098,1470
11.5155,1446
11.5212,1134
11.527,1566
11.5327,1446
11.5384,932
11.5441,1414
11.5498,1285
11.5556,958
11.5613,885
11.567,961
11.5727,1090
11.5785,1232
11.5842,870
11.5899,1348
11.5956,1130
11.6013,910
11.6071,1290
11.6128,1223
11.6185,960
11.6242,1307
11.63,1327
11.6357,1789
11.6414,970
11.6471,1438
11.6528,1012
11.6586,723
11.6643,1124
11.67,1430
11.6757,1059
11.6815,770
11.6872,945
11.6929,1018
11.6986,1364
11.7043,1178
11.7101,1487
11.7158,1217
11.7215,1343
11.7272,1458
11.733,811
11.7387,1021
11.7444,1214
11.7501,1263
11.7558,1631
11.7616,1476
11.7673,1170
11.773,1121
11.7787,1700
11.7845,922
11.7902,1142
11.7959,964
11.8016,977
11.8073,1170
11.8131,1116
11.8188,1095
11.8245,911
11.8302,1200
11.836,1201
11.8417,1209
11.8474,851
11.8531,1038
11.8588,1220
11.8646,1002
11.8703,1031
11.876,872
11.8817,1152
11.8875,827
11.8932,1232
11.8989,1073
11.9046,1125
11.9103,1050
11.9161,1187
11.9218,1746
11.9275,2626
11.9332,3110
11.9389,3873
11.9447,4375
11.9504,4047
11.9561,4442
11.9618,3920
11.9676,3862
11.9733,2681
11.979,2017
11.9847,1952
11.9904,2330
11.9962,1600
12.0019,1411
12.0076,1150
12.0133,1329
12.0191,1643
12.0248,1900
12.0305,1480
12.0362,1350
12.0419,1293
12.0477,1724
12.0534,1644
12.0591,883
12.0648,1227
12.0706,1150
12.0763,1193
12.082,1223
12.0877,1604
12.0934,1249
12.0992,1141
12.1049,877
12.1106,865
12.1163,1110
12.1221,1149
12.1278,1428
12.1335,725
12.1392,615
12.1449,1059
12.1507,982
12.1564,911
12.1621,804
12.1678,1305
12.1736,891
12.1793,1311
12.185,1252
12.1907,1148
12.1964,1500
12.2022,1609
12.2079,1652
12.2136,3475
12.2193,5313
12.2251,9426
12.2308,14685
12.2365,18505
12.2422,21525
12.2479,19732
12.2537,17556
12.2594,14081
12.2651,9684
12.2708,6834
12.2765,4559
12.2823,3195
12.288,2250
12.2937,1850
12.2994,1772
12.3052,1624
12.3109,985
12.3166,1210
12.3223,1135
12.328,1286
12.3338,1492
12.3395,824
12.3452,1617
12.3509,1129
12.3567,1421
12.3624,1191
12.3681,1194
12.3738,1617
12.3795,1262
12.3853,1154
12.391,1232
12.3967,1234
12.4024,1685
12.4082,1203
12.4139,1263
12.4196,1230
12.4253,762
12.431,727
12.4368,811
12.4425,1227
12.4482,1499
12.4539,954
12.4597,1117
12.4654,705
12.4711,1276
12.4768,674
12.4825,1277
12.4883,818
12.494,1362
12.4997,1143
12.5054,1367
12.5112,1405
12.5169,1507
12.5226,1189
12.5283,1235
12.534,1436
12.5398,1172
12.5455,974
12.5512,1259
12.5569,1141
12.5627,849
12.5684,722
12.5741,974
12.5798,1290
12.5855,1289
12.5913,1304
12.597,1126
12.6027,898
12.6084,1262
12.6141,1624
12.6199,1300
12.6256,1342
12.6313,684
12.637,1028
12.6428,860
12.6485,1336
12.6542,1098
12.6599,783
12.6656,1210
12.6714,1230
12.6771,883
12.6828,1126
12.6885,1129
12.6943,987
12.7,1002
12.7057,799
12.7114,1473
12.7171,1526
12.7229,2022
12.7286,3408
12.7343,3777
12.74,4189
12.7458,5836
12.7515,5361
12.7572,5461
12.7629,4443
12.7686,3059
12.7744,1767
12.7801,1884
12.7858,1328
12.7915,1322
12.7973,1305
12.803,1074
12.8087,1449
12.8144,1066
12.8201,1211
12.8259,936
12.8316,1023
12.8373,1273
12.843,1021
12.8488,1185
12.8545,1253
12.8602,705
12.8659,628
12.8716,1489
12.8774,793
12.8831,1036
12.8888,1205
12.8945,1031
12.9003,1182
12.906,1624
12.9117,1216
12.9174,2010
12.9231,1880
12.9289,1838
12.9346,1423
12.9403,1381
12.946,1580
12.9517,1008
12.9575,823
12.9632,1253
12.9689,1753
12.9746,848
12.9804,734
12.9861,1502
12.9918,1216
12.9975,2011
13.0032,1857
13.009,1727
13.0147,1847
13.0204,753
13.0261,1724
13.0319,1733
13.0376,1237
13.0433,1003
13.049,910
13.0547,944
13.0605,1095
13.0662,981
13.0719,964
13.0776,1089
13.0834,1196
13.0891,1004
13.0948,2311
13.1005,2055
13.1062,2532
13.112,2415
13.1177,2621
13.1234,2958
13.1291,2704
13.1349,2480
13.1406,1980
13.1463,1454
13.152,1584
13.1577,1451
13.1635,2044
13.1692,1569
13.1749,1498
13.1806,1310
13.1864,1214
13.1921,1141
13.1978,1115
13.2035,709
13.2092,1162
13.215,941
13.2207,1199
13.2264,1262
13.2321,1148
13.2379,1181
13.2436,1127
13.2493,1314
13.255,1245
13.2607,1257
13.2665,1089
13.2722,1388
13.2779,1157
13.2836,1006
13.2893,1170
13.2951,1045
13.3008,1041
13.3065,1219
13.3122,735
13.318,790
13.3237,869
13.3294,1166
13.3351,1205
13.3408,854
13.3466,1150
13.3523,1088
13.358,898
13.3637,986
13.3695,688
13.3752,1074
13.3809,1148
13.3866,1370
13.3923,1743
13.3981,1784
13.4038,1102
13.4095,1225
13.4152,1253
13.421,1469
13.4267,1666
13.4324,1644
13.4381,1520
13.4438,964
13.4496,1467
13.4553,693
13.461,734
13.4667,1062
13.4725,951
13.4782,729
13.4839,1062
13.4896,974
13.4953,1019
13.5011,749
13.5068,931
13.5125,1317
13.5182,1194
13.524,1576
13.5297,646
13.5354,985
13.5411,1084
13.5468,772
13.5526,991
13.5583,951
13.564,918
13.5697,695
13.5755,873
13.5812,597
13.5869,1354
13.5926,1396
13.5983,881
13.6041,991
13.6098,693
13.6155,1419
13.6212,1005
13.6269,1299
13.6327,1311
13.6384,1460
13.6441,938
13.6498,1485
13.6556,896
13.6613,915
13.667,1082
13.6727,611
13.6784,852
13.6842,1155
13.6899,1222
13.6956,1128
13.7013,719
13.7071,778
13.7128,849
13.7185,1138
13.7242,833
13.7299,1144
13.7357,1203
13.7414,1031
13.7471,1386
13.7528,985
13.7586,694
13.7643,778
13.77,930
13.7757,1287
13.7814,654
13.7872,813
13.7929,1115
13.7986,912
13.8043,863
13.8101,989
13.8158,1396
13.8215,1045
13.8272,760
13.8329,1242
13.8387,1171
13.8444,707
13.8501,1075
13.8558,1064
13.8616,1032
13.8673,1171
13.873,1404
13.8787,1340
13.8844,1407
13.8902,2694
13.8959,1247
13.9016,1237
13.9073,855
13.9131,1566
13.9188,1009
13.9245,894
13.9302,813
13.9359,785
13.9417,852
13.9474,851
13.9531,967
13.9588,846
13.9645,1056
13.9703,779
13.976,589
13.9817,966
13.9874,1190
13.9932,1095
13.9989,806
14.0046,1177
14.0103,974
14.016,754
14.0218,1489
14.0275,858
14.0332,1030
14.0389,1109
14.0447,1408
14.0504,925
14.0561,1445
14.0618,1606
14.0675,1228
14.0733,948
14.079,1151
14.0847,698
14.0904,1182
14.0962,728
14.1019,896
14.1076,1233
14.1133,983
14.119,836
14.1248,1249
14.1305,2279
14.1362,2143
14.1419,2912
14.1477,2801
14.1534,2513
14.1591,1820
14.1648,1588
14.1705,1678
14.1763,1363
14.182,1512
14.1877,1168
14.1934,1778
14.1992,1188
14.2049,1469
14.2106,1345
14.2163,1302
14.222,1249
14.2278,1233
14.2335,1058
14.2392,1102
14.2449,1355
14.2507,2732
14.2564,4081
14.2621,4401
14.2678,5263
14.2735,5177
14.2793,5260
14.285,4177
14.2907,3524
14.2964,2292
14.3022,2127
14.3079,1931
14.3136,2060
14.3193,1227
14.325,1164
14.3308,1516
14.3365,909
14.3422,1153
14.3479,1248
14.3536,1150
14.3594,1024
14.3651,962
14.3708,1347
14.3765,1151
14.3823,645
14.388,842
14.3937,1508
14.3994,2084
14.4051,3467
14.4109,4338
14.4166,5347
14.4223,6703
14.428,5637
14.4338,5088
14.4395,4579
14.4452,3373
14.4509,3396
14.4566,2621
14.4624,2150
14.4681,2467
14.4738,2344
14.4795,1937
14.4853,1699
14.491,1478
14.4967,1039
14.5024,1425
14.5081,1093
14.5139,900
14.5196,1459
14.5253,1257
14.531,1541
14.5368,2228
14.5425,1151
14.5482,1364
14.5539,965
14.5596,828
14.5654,894
14.5711,894
14.5768,954
14.5825,887
14.5883,906
14.594,750
14.5997,1025
14.6054,797
14.6111,1210
14.6169,1144
14.6226,788
14.6283,832
14.634,932
14.6398,1165
14.6455,706
14.6512,603
14.6569,974
14.6626,1272
14.6684,1367
14.6741,1019
14.6798,1110
14.6855,780
14.6912,935
14.697,544
14.7027,1227
14.7084,590
14.7141,871
14.7199,683
14.7256,539
14.7313,824
14.737,1031
14.7427,1409
14.7485,775
14.7542,1160
14.7599,1055
14.7656,816
14.7714,1035
14.7771,981
14.7828,536
14.7885,1150
14.7942,854
14.8,523
14.8057,1043
14.8114,1118
14.8171,917
14.8229,1043
14.8286,1388
14.8343,842
14.84,832
14.8457,1025
14.8515,947
14.8572,1066
14.8629,1025
14.8686,775
14.8744,742
14.8801,895
14.8858,1292
14.8915,1036
14.8972,543
14.903,933
14.9087,592
14.9144,962
14.9201,667
14.9259,849
14.9316,505
14.9373,1051
14.943,973
14.9487,702
14.9545,665
14.9602,1216
14.9659,612
14.9716,856
14.9774,1107
14.9831,1122
14.9888,591
14.9945,594
15.0002,1091
15.006,728
15.0117,613
15.0174,815
15.0231,423
15.0288,788
15.0346,716
15.0403,1365
15.046,798
15.0517,1331
15.0575,1174
15.0632,747
15.0689,531
15.0746,1132
15.0803,568
15.0861,829
15.0918,862
15.0975,1207
15.1032,895
15.109,907
15.1147,1110
15.1204,907
15.1261,927
15.1318,879
15.1376,721
15.1433,800
15.149,852
15.1547,1394
15.1605,1122
15.1662,646
15.1719,439
15.1776,919
15.1833,657
15.1891,780
15.1948,863
15.2005,780
15.2062,1360
15.212,700
15.2177,627
15.2234,913
15.2291,823
15.2348,1125
15.2406,700
15.2463,1022
15.252,780
15.2577,906
15.2635,1310
15.2692,755
15.2749,1179
15.2806,960
15.2863,1076
15.2921,710
15.2978,1020
15.3035,1412
15.3092,977
15.315,877
15.3207,967
15.3264,897
15.3321,953
15.3378,774
15.3436,835
15.3493,951
15.355,1308
15.3607,1197
15.3664,1474
15.3722,1253
15.3779,831
15.3836,767
15.3893,792
15.3951,772
15.4008,911
15.4065,1010
15.4122,1117
15.4179,861
15.4237,978
15.4294,716
15.4351,1334
15.4408,946
15.4466,797
15.4523,789
15.458,768
15.4637,598
15.4694,663
15.4752,787
15.4809,910
15.4866,828
15.4923,756
15.4981,980
15.5038,794
15.5095,725
15.5152,729
15.5209,867
15.5267,632
15.5324,893
15.5381,520
15.5438,1010
15.5496,984
15.5553,959
15.561,1063
15.5667,692
15.5724,946
15.5782,1234
15.5839,662
15.5896,719
15.5953,1023
15.6011,935
15.6068,646
15.6125,493
15.6182,455
15.6239,874
15.6297,783
15.6354,474
15.6411,262
15.6468,889
15.6526,753
15.6583,937
15.664,663
15.6697,884
15.6754,970
15.6812,1068
15.6869,1179
15.6926,889
15.6983,960
15.704,565
15.7098,935
15.7155,1281
15.7212,915
15.7269,688
15.7327,1117
15.7384,1116
15.7441,681
15.7498,812
15.7555,1055
15.7613,538
15.767,907
15.7727,817
15.7784,1056
15.7842,1224
15.7899,769
15.7956,807
15.8013,1020
15.807,754
15.8128,2330
15.8185,3968
15.8242,8862
15.8299,17748
15.8357,33567
15.8414,57426
15.8471,85723
15.8528,111428
15.8585,129513
15.8643,127255
15.87,111756
15.8757,83376
15.8814,55901
15.8872,34755
15.8929,20052
15.8986,9464
15.9043,3912
15.91,1843
15.9158,1681
15.9215,1351
15.9272,1110
15.9329,920
15.9387,966
15.9444,875
15.9501,738
15.9558,968
15.9615,904
15.9673,787
15.973,271
15.9787,883
15.9844,1286
15.9902,638
15.9959,1066
16.0016,749
16.0073,717
16.013,970
16.0188,741
16.0245,858
16.0302,1118
16.0359,807
16.0416,784
16.0474,682
16.0531,932
16.0588,1271
16.0645,998
16.0703,356
16.076,933
16.0817,668
16.0874,722
16.0931,1415
16.0989,1154
16.1046,711
16.1103,901
16.116,974
16.1217,763
16.1275,675
16.1332,902
16.1389,907
16.1446,797
16.1504,839
16.1561,832
16.1618,753
16.1675,875
16.1732,436
16.179,1712
16.1847,3234
16.1904,5449
16.1961,6633
16.2019,8087
16.2076,7163
16.2133,6643
16.219,6089
16.2248,4909
16.2305,4438
16.2362,3594
16.2419,3121
16.2476,2151
16.2534,3295
16.2591,2619
16.2648,1571
16.2705,2173
16.2763,2677
16.282,2276
16.2877,2295
16.2934,3000
16.2991,2771
16.3048,2828
16.3106,2859
16.3163,2948
16.322,2806
16.3278,2026
16.3335,2155
16.3392,2153
16.3449,1169
16.3506,1357
16.3563,1051
16.3621,882
16.3678,1886
16.3735,1258
16.3792,1098
16.385,1003
16.3907,1357
16.3964,1428
16.4021,972
16.4079,893
16.4136,1704
16.4193,1282
16.425,1052
16.4307,1317
16.4365,1167
16.4422,1451
16.4479,1481
16.4536,1723
16.4594,1189
16.4651,1345
16.4708,810
16.4765,1195
16.4822,706
16.488,1411
16.4937,1217
16.4994,1743
16.5051,1518
16.5109,1534
16.5166,1176
16.5223,1436
16.528,838
16.5337,1084
16.5395,512
16.5452,1175
16.5509,997
16.5566,1216
16.5623,1373
16.5681,808
16.5738,1048
16.5795,1696
16.5852,1210
16.5909,1603
16.5967,1599
16.6024,1314
16.6081,1702
16.6138,1202
16.6196,917
16.6253,860
16.631,1039
16.6367,817
16.6425,985
16.6482,851
16.6539,1047
16.6596,1143
16.6654,808
16.6711,1067
16.6768,1059
16.6825,940
16.6882,824
16.694,1502
16.6997,1166
16.7054,1441
16.7111,1088
16.7169,1275
16.7226,661
16.7283,1240
16.734,862
16.7397,866
16.7455,1226
16.7512,1408
16.7569,834
16.7626,1140
16.7683,608
16.7741,1072
16.7798,650
16.7855,973
16.7912,1206
16.7969,650
16.8027,730
16.8084,862
16.8141,1007
16.8198,1011
16.8256,1299
16.8313,903
16.837,813
16.8427,875
16.8485,926
16.8542,996
16.8599,756
16.8656,1665
16.8713,884
16.8771,955
16.8828,1899
16.8885,1654
16.8942,1657
16.9,1363
16.9057,1998
16.9114,1037
16.9171,1387
16.9228,908
16.9286,1130
16.9343,886
16.94,909
16.9457,1034
16.9515,911
16.9572,1009
16.9629,1135
16.9686,1382
16.9743,1753
16.98,1977
16.9858,1828
16.9915,1759
16.9972,1516
17.0029,1149
17.0087,1021
17.0144,685
17.0201,1181
17.0258,859
17.0315,845
17.0373,1178
17.043,924
17.0487,724
17.0544,1015
17.0602,835
17.0659,496
17.0716,937
17.0773,917
17.0831,1202
17.0888,1005
17.0945,1115
17.1002,898
17.1059,1288
17.1117,1341
17.1174,1301
17.1231,918
17.1288,934
17.1346,506
17.1403,573
17.146,1353
17.1517,765
17.1574,1122
17.1632,932
17.1689,952
17.1746,983
17.1803,702
17.1861,543
17.1918,990
17.1975,996
17.2032,743
17.2089,874
17.2147,1322
17.2204,836
17.2261,531
17.2318,800
17.2375,1206
17.2433,986
17.249,1179
17.2547,1428
17.2604,911
17.2662,247
17.2719,784
17.2776,419
17.2833,933
17.2891,967
17.2948,552
17.3005,985
17.3062,850
17.3119,641
17.3177,284
17.3234,632
17.3291,837
17.3348,886
17.3406,494
17.3463,1408
17.352,1238
17.3577,479
17.3634,880
17.3692,773
17.3749,721
17.3806,934
17.3863,1053
17.3921,874
17.3978,563
17.4035,1000
17.4092,829
17.4149,868
17.4206,528
17.4264,522
17.4321,940
17.4378,686
17.4435,858
17.4493,634
17.455,808
17.4607,497
17.4664,800
17.4721,860
17.4779,804
17.4836,657
17.4893,781
17.495,792
17.5008,1131
17.5065,645
17.5122,926
17.5179,753
17.5237,839
17.5294,890
17.5351,668
17.5408,972
17.5465,708
17.5523,879
17.558,945
17.5637,966
17.5694,830
17.5752,1147
17.5809,463
17.5866,598
17.5923,502
17.598,691
17.6038,883
17.6095,1216
17.6152,717
17.6209,1051
17.6267,748
17.6324,907
17.6381,787
17.6438,979
17.6495,1436
17.6553,676
17.661,1062
17.6667,1233
17.6724,961
17.6782,1757
17.6839,1698
17.6896,1611
17.6953,852
17.701,1133
17.7068,504
17.7125,635
17.7182,913
17.7239,192
17.7296,418
17.7354,879
17.7411,477
17.7468,1014
17.7525,814
17.7583,795
17.764,269
17.7697,818
17.7754,947
17.7811,518
17.7869,849
17.7926,617
17.7983,620
17.804,811
17.8098,901
17.8155,1228
17.8212,872
17.8269,707
17.8326,659
17.8384,647
17.8441,1261
17.8498,910
17.8555,284
17.8613,882
17.867,634
17.8727,1391
17.8784,557
17.8841,1025
17.8899,926
17.8956,819
17.9013,1264
17.907,741
17.9128,847
17.9185,635
17.9242,929
17.9299,1053
17.9356,1354
17.9414,1266
17.9471,1354
17.9528,787
17.9585,930
17.9643,1696
17.97,1199
17.9757,1747
17.9814,1614
17.9871,1240
17.9929,1150
17.9986,1292
18.0043,1351
18.01,941
18.0158,1392
18.0215,986
18.0272,943
18.0329,702
18.0386,792
18.0444,838
18.0501,313
18.0558,1109
18.0615,599
18.0673,1093
18.073,592
18.0787,575
18.0844,949
18.0901,1140
18.0959,1564
18.1016,1270
18.1073,1208
18.113,681
18.1187,1120
18.1245,1213
18.1302,971
18.1359,687
18.1416,1068
18.1473,552
18.1531,966
18.1588,980
18.1645,837
18.1702,843
18.176,711
18.1817,792
18.1874,695
18.1931,954
18.1989,802
18.2046,1396
18.2103,1260
18.216,878
18.2217,771
18.2275,736
18.2332,904
18.2389,871
18.2446,869
18.2504,1055
18.2561,1217
18.2618,1094
18.2675,726
18.2732,1079
18.279,397
18.2847,1239
18.2904,566
18.2961,914
18.3019,531
18.3076,706
18.3133,985
18.319,1200
18.3247,477
18.3305,714
18.3362,1008
18.3419,549
18.3476,714
18.3534,960
18.3591,780
18.3648,976
18.3705,919
18.3762,1290
18.382,694
18.3877,535
18.3934,1132
18.3991,758
18.4049,1066
18.4106,779
18.4163,667
18.422,335
18.4277,778
18.4335,779
18.4392,483
18.4449,565
18.4506,1025
18.4563,901
18.4621,520
18.4678,818
18.4735,504
18.4792,863
18.485,835
18.4907,563
18.4964,969
18.5021,1099
18.5078,890
18.5136,933
18.5193,673
18.525,577
18.5307,1135
18.5365,553
18.5422,960
18.5479,646
18.5536,809
18.5593,1177
18.5651,713
18.5708,1052
18.5765,1076
18.5822,911
18.5879,1302
18.5937,944
18.5994,1201
18.6051,780
18.6108,986
18.6166,1022
18.6223,727
18.628,979
18.6337,921
18.6395,787
18.6452,1042
18.6509,850
18.6566,1460
18.6623,1524
18.6681,975
18.6738,868
18.6795,1229
18.6852,716
18.691,1624
18.6967,943
18.7024,1296
18.7081,928
18.7138,1111
18.7196,1071
18.7253,1111
18.731,954
18.7367,1092
18.7425,1025
18.7482,657
18.7539,663
18.7596,1195
18.7653,1204
18.7711,1353
18.7768,816
18.7825,1021
18.7882,1052
18.7939,917
18.7997,760
18.8054,835
18.8111,643
18.8168,942
18.8226,828
18.8283,1184
18.834,1031
18.8397,458
18.8454,688
18.8512,1091
18.8569,647
18.8626,894
18.8683,993
18.8741,555
18.8798,714
18.8855,708
18.8912,1029
18.8969,1209
18.9027,1095
18.9084,698
18.9141,729
18.9198,1611
18.9256,1126
18.9313,868
18.937,1047
18.9427,879
18.9484,293
18.9542,766
18.9599,1021
18.9656,984
18.9713,934
18.9771,519
18.9828,914
18.9885,471
18.9942,910
18.9999,1037
19.0056,743
19.0114,494
19.0171,894
19.0228,326
19.0285,1012
19.0343,651
19.04,564
19.0457,857
19.0514,723
19.0572,1197
19.0629,794
19.0686,1013
19.0743,1062
19.0801,1566
19.0858,1091
19.0915,781
19.0972,1043
19.1029,672
19.1087,1158
19.1144,915
19.1201,635
19.1258,1041
19.1315,508
19.1373,640
19.143,571
19.1487,891
19.1544,802
19.1602,952
19.1659,887
19.1716,859
19.1773,620
19.183,446
19.1888,751
19.1945,1164
19.2002,1665
19.2059,726
19.2117,1316
19.2174,1011
19.2231,1052
19.2288,1391
19.2345,906
19.2403,784
19.246,1649
19.2517,1215
19.2574,1487
19.2632,1226
19.2689,1160
19.2746,1372
19.2803,549
19.286,695
19.2918,811
19.2975,763
19.3032,988
19.3089,887
19.3147,1181
19.3204,926
19.3261,858
19.3318,726
19.3375,634
19.3433,1515
19.349,1742
19.3547,1917
19.3604,3967
19.3662,5001
19.3719,5271
19.3776,7890
19.3833,7304
19.389,5099
19.3948,5007
19.4005,3239
19.4062,2172
19.4119,1601
19.4177,1101
19.4234,526
19.4291,651
19.4348,753
19.4405,732
19.4463,876
19.452,1024
19.4577,555
19.4634,717
19.4692,873
19.4749,787
19.4806,1075
19.4863,1063
19.492,842
19.4978,869
19.5035,422
19.5092,809
19.5149,478
19.5206,919
19.5264,949
19.5321,783
19.5378,740
19.5435,1034
19.5493,823
19.555,904
19.5607,623
19.5664,811
19.5721,381
19.5779,989
19.5836,788
19.5893,853
19.595,1088
19.6008,1692
19.6065,1214
19.6122,1653
19.6179,1651
19.6236,1090
19.6294,1328
19.6351,906
19.6408,1212
19.6465,1229
19.6523,1364
19.658,1208
19.6637,956
19.6694,604
19.6751,1798
19.6809,855
19.6866,625
19.6923,542
19.698,822
19.7037,944
19.7095,783
19.7152,824
19.7209,641
19.7266,1608
19.7324,940
19.7381,647
19.7438,605
19.7495,1167
19.7553,1136
19.761,1699
19.7667,1302
19.7724,1233
19.7781,1395
19.7839,850
19.7896,641
19.7953,729
19.801,478
19.8068,741
19.8125,1251
19.8182,762
19.8239,907
19.8296,1105
19.8354,544
19.8411,863
19.8468,495
19.8525,909
19.8582,940
19.864,478
19.8697,936
19.8754,832
19.8811,600
19.8869,974
19.8926,458
19.8983,733
19.904,1358
19.9097,728
19.9155,929
19.9212,814
19.9269,1099
19.9326,867
19.9384,817
19.9441,1202
19.9498,971
19.9555,864
19.9612,697
19.967,1524
19.9727,1734
19.9784,1218
19.9841,1721
19.9899,1400
19.9956,693
20.0013,1448
20.007,1150
20.0127,1594
20.0185,1208
20.0242,827
20.0299,976
20.0356,744
20.0414,636
20.0471,1094
20.0528,379
20.0585,771
20.0642,776
20.07,972
20.0757,1066
20.0814,1086
20.0871,398
20.0929,1439
20.0986,979
20.1043,780
20.11,521
20.1157,1127
20.1214,826
20.1272,777
20.1329,1227
20.1386,640
20.1443,839
20.1501,906
20.1558,891
20.1615,1307
20.1672,1414
20.173,1753
20.1787,1773
20.1844,3779
20.1901,4097
20.1958,4452
20.2016,6122
20.2073,5332
20.213,4471
20.2187,3620
20.2245,2420
20.2302,2356
20.2359,1564
20.2416,1761
20.2473,692
20.2531,1561
20.2588,978
20.2645,1223
20.2702,967
20.276,1456
20.2817,1233
20.2874,787
20.2931,1232
20.2988,1941
20.3046,828
20.3103,1671
20.316,1466
20.3217,1900
20.3275,1714
20.3332,1522
20.3389,1493
20.3446,1040
20.3503,1380
20.3561,908
20.3618,932
20.3675,958
20.3732,1536
20.379,939
20.3847,560
20.3904,588
20.3961,574
20.4018,602
20.4076,679
20.4133,776
20.419,1213
20.4247,814
20.4305,682
20.4362,835
20.4419,850
20.4476,1099
20.4533,847
20.4591,1227
20.4648,1238
20.4705,588
20.4762,620
20.482,799
20.4877,765
20.4934,1185
20.4991,789
20.5048,1184
20.5106,361
20.5163,625
20.522,866
20.5277,745
20.5334,811
20.5392,533
20.5449,642
20.5506,737
20.5563,737
20.562,745
20.5678,1008
20.5735,908
20.5792,1298
20.5849,1318
20.5907,999
20.5964,1314
20.6021,1074
20.6078,829
20.6136,675
20.6193,872
20.625,1815
20.6307,2786
20.6364,2889
20.6422,3818
20.6479,3279
20.6536,2445
20.6593,2790
20.6651,981
20.6708,1120
20.6765,1086
20.6822,640
20.6879,1211
20.6937,730
20.6994,712
20.7051,1077
20.7108,951
20.7166,853
20.7223,914
20.728,469
20.7337,463
20.7394,1208
20.7452,1144
20.7509,1086
20.7566,623
20.7623,747
20.7681,1476
20.7738,1014
20.7795,2086
20.7852,1932
20.7909,3071
20.7967,2292
20.8024,3440
20.8081,2289
20.8138,1441
20.8196,1830
20.8253,1187
20.831,1611
20.8367,946
20.8424,849
20.8482,550
20.8539,325
20.8596,873
20.8653,1060
20.871,839
20.8768,1315
20.8825,1884
20.8882,1394
20.8939,1526
20.8997,987
20.9054,1038
20.9111,1127
20.9168,898
20.9225,1102
20.9283,779
20.934,849
20.9397,1687
20.9454,1389
20.9512,1112
20.9569,1214
20.9626,916
20.9683,588
20.974,797
20.9798,1206
20.9855,1052
20.9912,801
20.9969,1076
21.0027,816
21.0084,981
21.0141,832
21.0198,607
21.0255,1100
21.0313,1025
21.037,1154
21.0427,1199
21.0484,1150
21.0542,1655
21.0599,950
21.0656,1934
21.0713,1000
21.077,1147
21.0828,1254
21.0885,926
21.0942,1012
21.0999,622
21.1057,1182
21.1114,692
21.1171,1199
21.1228,1137
21.1285,631
21.1343,1139
21.14,800
21.1457,830
21.1514,1558
21.1572,762
21.1629,404
21.1686,1103
21.1743,481
21.18,936
21.1858,780
21.1915,592
21.1972,888
21.2029,987
21.2086,988
21.2144,572
21.2201,595
21.2258,502
21.2315,995
21.2373,1015
21.243,567
21.2487,989
21.2544,765
21.2601,879
21.2659,755
21.2716,1226
21.2773,801
21.283,975
21.2888,631
21.2945,563
21.3002,910
21.3059,741
21.3116,758
21.3174,672
21.3231,836
21.3288,712
21.3345,1057
21.3403,629
21.346,1329
21.3517,619
21.3574,1055
21.3631,851
21.3689,934
21.3746,681
21.3803,1268
21.386,862
21.3918,942
21.3975,819
21.4032,392
21.4089,1219
21.4146,839
21.4204,1326
21.4261,851
21.4318,1104
21.4375,974
21.4433,650
21.449,682
21.4547,973
21.4604,836
21.4661,913
21.4719,788
21.4776,811
21.4833,1137
21.489,691
21.4948,988
21.5005,888
21.5062,994
21.5119,814
21.5176,943
21.5234,600
21.5291,909
21.5348,526
21.5405,678
21.5462,926
21.552,1228
21.5577,909
21.5634,955
21.5691,986
21.5749,947
21.5806,872
21.5863,555
21.592,473
21.5977,1404
21.6035,1093
21.6092,597
21.6149,1000
21.6206,532
21.6264,984
21.6321,832
21.6378,966
21.6435,866
21.6492,990
21.655,546
21.6607,876
21.6664,790
21.6721,608
21.6778,930
21.6836,1059
21.6893,939
21.695,949
21.7007,941
21.7065,1140
21.7122,762
21.7179,834
21.7236,956
21.7294,763
21.7351,755
21.7408,645
21.7465,684
21.7522,898
21.758,700
21.7637,1040
21.7694,757
21.7751,857
21.7809,607
21.7866,641
21.7923,760
21.798,581
21.8037,1090
21.8095,867
21.8152,622
21.8209,753
21.8266,646
21.8324,784
21.8381,601
21.8438,722
21.8495,618
21.8552,564
21.861,919
21.8667,763
21.8724,382
21.8781,804
21.8838,794
21.8896,556
21.8953,407
21.901,967
21.9067,911
21.9125,1388
21.9182,943
21.9239,893
21.9296,771
21.9353,1021
21.9411,720
21.9468,592
21.9525,1026
21.9582,1065
21.964,716
21.9697,1018
21.9754,919
21.9811,902
21.9868,447
21.9926,713
21.9983,612
22.004,746
22.0097,820
22.0155,215
22.0212,941
22.0269,1081
22.0326,983
22.0383,1238
22.0441,696
22.0498,846
22.0555,977
22.0612,599
22.067,506
22.0727,323
22.0784,1040
22.0841,585
22.0898,737
22.0955,437
22.1013,788
22.107,406
22.1127,772
22.1185,952
22.1242,947
22.1299,248
22.1356,851
22.1413,588
22.1471,639
22.1528,686
22.1585,503
22.1642,746
22.17,1195
22.1757,1138
22.1814,700
22.1871,943
22.1928,375
22.1986,1051
22.2043,671
22.21,1035
22.2157,832
22.2214,591
22.2272,687
22.2329,704
22.2386,576
22.2443,1055
22.2501,1507
22.2558,1096
22.2615,939
22.2672,260
22.2729,787
22.2787,585
22.2844,746
22.2901,1066
22.2958,646
22.3016,944
22.3073,713
22.313,1090
22.3187,637
22.3244,908
22.3302,978
22.3359,848
22.3416,675
22.3473,496
22.3531,827
22.3588,757
22.3645,808
22.3702,862
22.3759,495
22.3817,987
22.3874,798
22.3931,909
22.3988,691
22.4046,952
22.4103,660
22.416,1322
22.4217,662
22.4274,760
22.4332,1184
22.4389,787
22.4446,928
22.4503,724
22.4561,925
22.4618,1188
22.4675,1133
22.4732,968
22.4789,677
22.4847,712
22.4904,416
22.4961,665
22.5018,1061
22.5076,926
22.5133,1036
22.519,829
22.5247,680
22.5304,928
22.5362,915
22.5419,737
22.5476,747
22.5533,698
22.5591,884
22.5648,572
22.5705,932
22.5762,1019
22.5819,902
22.5877,1289
22.5934,500
22.5991,1303
22.6048,888
22.6105,819
22.6163,789
22.622,1210
22.6277,924
22.6334,1126
22.6392,510
22.6449,822
22.6506,1162
22.6563,1093
22.662,1184
22.6678,1373
22.6735,1196
22.6792,1101
22.6849,969
22.6907,920
22.6964,727
22.7021,1137
22.7078,858
22.7135,825
22.7193,890
22.725,618
22.7307,638
22.7364,916
22.7422,1002
22.7479,986
22.7536,899
22.7593,719
22.765,705
22.7708,949
22.7765,1233
22.7822,676
22.7879,244
22.7937,755
22.7994,643
22.8051,997
22.8108,812
22.8165,965
22.8223,1271
22.828,849
22.8337,672
22.8394,826
22.8452,1030
22.8509,1010
22.8566,767
22.8623,1234
22.868,1154
22.8738,646
22.8795,1064
22.8852,837
22.8909,1253
22.8967,577
22.9024,762
22.9081,1420
22.9138,1165
22.9195,1076
22.9253,814
22.931,951
22.9367,1044
22.9424,875
22.9481,1101
22.9539,860
22.9596,1055
22.9653,1101
22.971,509
22.9768,621
22.9825,536
22.9882,976
22.9939,305
22.9996,820
23.0054,862
23.0111,799
23.0168,1043
23.0225,1302
23.0283,1108
23.034,898
23.0397,968
23.0454,664
23.0511,896
23.0569,983
23.0626,1203
23.0683,1023
23.074,606
23.0798,590
23.0855,924
23.0912,1349
23.0969,1091
23.1026,1010
23.1084,887
23.1141,1297
23.1198,593
23.1255,1404
23.1313,1075
23.137,1043
23.1427,1278
23.1484,1191
23.1541,784
23.1599,1156
23.1656,611
23.1713,802
23.177,1010
23.1828,654
23.1885,549
23.1942,697
23.1999,930
23.2056,704
23.2113,852
23.2171,985
23.2228,993
23.2285,1156
23.2342,1113
23.24,854
23.2457,344
23.2514,1576
23.2571,729
23.2629,1488
23.2686,897
23.2743,1181
23.28,887
23.2857,676
23.2915,420
23.2972,799
23.3029,976
23.3086,915
23.3144,1212
23.3201,824
23.3258,580
23.3315,931
23.3372,929
23.343,997
23.3487,1128
23.3544,834
23.3601,803
23.3659,1672
23.3716,1457
23.3773,1072
23.383,1497
23.3887,373
23.3945,1049
23.4002,1003
23.4059,1053
23.4116,1157
23.4174,984
23.4231,1225
23.4288,1797
23.4345,1253
23.4402,1175
23.446,1166
23.4517,1151
23.4574,1126
23.4631,1140
23.4689,1381
23.4746,1264
23.4803,1073
23.486,1138
23.4917,807
23.4975,981
23.5032,733
23.5089,888
23.5146,538
23.5204,818
23.5261,882
23.5318,736
23.5375,1126
23.5432,718
23.549,706
23.5547,775
23.5604,836
23.5661,584
23.5719,854
23.5776,1014
23.5833,1122
23.589,989
23.5947,1169
23.6005,1090
23.6062,723
23.6119,1595
23.6176,1142
23.6233,1172
23.6291,742
23.6348,767
23.6405,904
23.6462,1321
23.6519,744
23.6577,1168
23.6634,636
23.6691,965
23.6748,1222
23.6806,863
23.6863,687
23.692,1224
23.6977,1129
23.7035,1067
23.7092,988
23.7149,862
23.7206,1216
23.7263,906
23.7321,898
23.7378,1005
23.7435,1032
23.7492,527
23.755,753
23.7607,648
23.7664,1124
23.7721,918
23.7778,663
23.7836,698
23.7893,1605
23.795,1586
23.8007,896
23.8065,1387
23.8122,688
23.8179,555
23.8236,737
23.8293,776
23.8351,864
23.8408,483
23.8465,878
23.8522,1107
23.858,727
23.8637,650
23.8694,852
23.8751,1144
23.8808,975
23.8866,1043
23.8923,797
23.898,1200
23.9037,697
23.9095,762
23.9152,882
23.9209,1136
23.9266,770
23.9323,927
23.9381,1028
23.9438,1223
23.9495,987
23.9552,895
23.9609,1337
23.9667,730
23.9724,981
23.9781,945
23.9838,835
23.9896,934
23.9953,1610
24.001,1042
24.0067,1336
24.0124,1300
24.0182,932
24.0239,1404
24.0296,837
24.0353,634
24.0411,983
24.0468,1221
24.0525,1289
24.0582,791
24.0639,865
24.0697,624
24.0754,548
24.0811,552
24.0868,999
24.0926,575
24.0983,1376
24.104,1160
24.1097,1204
24.1154,1213
24.1212,1739
24.1269,996
24.1326,1236
24.1383,822
24.1441,1330
24.1498,1635
24.1555,1773
24.1612,1742
24.1669,1774
24.1727,1852
24.1784,1492
24.1841,1163
24.1898,1337
24.1956,1220
24.2013,904
24.207,932
24.2127,982
24.2184,735
24.2242,685
24.2299,1446
24.2356,624
24.2413,790
24.2471,882
24.2528,1004
24.2585,693
24.2642,758
24.2699,1119
24.2757,682
24.2814,983
24.2871,586
24.2928,624
24.2985,964
24.3043,903
24.31,1332
24.3157,1085
24.3214,815
24.3272,1064
24.3329,1025
24.3386,844
24.3443,1017
24.35,1434
24.3558,1215
24.3615,1295
24.3672,1091
24.3729,939
24.3787,1216
24.3844,813
24.3901,928
24.3958,666
24.4015,884
24.4073,1419
24.413,1458
24.4187,981
24.4244,1210
24.4302,609
24.4359,1022
24.4416,929
24.4473,708
24.453,1097
24.4588,1668
24.4645,1705
24.4702,1068
24.4759,1143
24.4817,1115
24.4874,992
24.4931,747
24.4988,1072
24.5045,1241
24.5103,794
24.516,1218
24.5217,852
24.5274,678
24.5332,1389
24.5389,871
24.5446,1062
24.5503,1529
24.556,1077
24.5618,1484
24.5675,857
24.5732,1073
24.5789,1192
24.5847,1005
24.5904,866
24.5961,929
24.6018,717
24.6075,1241
24.6133,1521
24.619,840
24.6247,704
24.6304,1045
24.6361,791
24.6419,912
24.6476,1136
24.6533,852
24.659,1239
24.6648,1109
24.6705,1404
24.6762,1385
24.6819,1654
24.6876,766
24.6934,885
24.6991,1212
24.7048,1040
24.7105,1443
24.7163,1391
24.722,815
24.7277,1043
24.7334,1254
24.7391,1611
24.7449,742
24.7506,1382
24.7563,1671
24.762,1098
24.7677,1555
24.7735,1870
24.7792,3267
24.7849,3371
24.7906,4009
24.7964,3576
24.8021,4952
24.8078,3159
24.8135,2565
24.8193,2180
24.825,1889
24.8307,1798
24.8364,1256
24.8421,931
24.8479,809
24.8536,1076
24.8593,1114
24.865,1184
24.8708,915
24.8765,1720
24.8822,1419
24.8879,1129
24.8936,2191
24.8994,2077
24.9051,1710
24.9108,1027
24.9165,720
24.9223,1430
24.928,1027
24.9337,899
24.9394,1199
24.9451,1139
24.9509,1434
24.9566,1566
24.9623,1406
24.968,1223
24.9737,1311
24.9795,1028
24.9852,2318
24.9909,2031
24.9966,3300
25.0024,3736
25.0081,5322
25.0138,7539
25.0195,8766
25.0252,7715
25.031,7077
25.0367,6017
25.0424,4333
25.0481,3747
25.0539,1934
25.0596,1931
25.0653,912
25.071,1027
25.0767,1205
25.0825,1161
25.0882,484
25.0939,1335
25.0996,942
25.1054,984
25.1111,1096
25.1168,1042
25.1225,1589
25.1282,1304
25.134,1604
25.1397,1141
25.1454,1209
25.1511,1297
25.1569,825
25.1626,836
25.1683,1343
25.174,1666
25.1797,1501
25.1854,1188
25.1912,1389
25.1969,2239
25.2026,1440
25.2084,1448
25.2141,1172
25.2198,1291
25.2255,2452
25.2312,916
25.237,2228
25.2427,1797
25.2484,1930
25.2541,1046
25.2599,1333
25.2656,1552
25.2713,2560
25.277,1436
25.2827,1478
25.2885,1724
25.2942,1717
25.2999,1303
25.3056,2335
25.3114,2342
25.3171,3432
25.3228,3959
25.3285,5644
25.3342,5471
25.34,5198
25.3457,4790
25.3514,3610
25.3571,2885
25.3628,2412
25.3686,1703
25.3743,973
25.38,829
25.3857,947
25.3915,1117
25.3972,1548
25.4029,2526
25.4086,1741
25.4143,2007
25.4201,1928
25.4258,1731
25.4315,2109
25.4372,1280
25.443,1305
25.4487,2292
25.4544,1934
25.4601,1331
25.4658,1207
25.4716,1308
25.4773,852
25.483,788
25.4887,784
25.4945,1920
25.5002,1420
25.5059,1302
25.5116,1254
25.5173,1314
25.5231,1143
25.5288,1176
25.5345,727
25.5402,1075
25.546,965
25.5517,1082
25.5574,1106
25.5631,1367
25.5688,2188
25.5746,970
25.5803,1209
25.586,1455
25.5917,988
25.5975,1126
25.6032,1371
25.6089,1218
25.6146,1566
25.6203,933
25.6261,1003
25.6318,942
25.6375,984
25.6432,1288
25.649,1413
25.6547,1052
25.6604,1175
25.6661,924
25.6718,1013
25.6776,1072
25.6833,1275
25.689,1369
25.6947,978
25.7004,1435
25.7062,839
25.7119,1068
25.7176,819
25.7233,877
25.7291,459
25.7348,1947
25.7405,654
25.7462,511
25.7519,1275
25.7577,1149
25.7634,1746
25.7691,923
25.7748,769
25.7806,713
25.7863,1403
25.792,783
25.7977,1602
25.8034,1018
25.8092,1513
25.8149,1591
25.8206,1871
25.8263,2108
25.8321,2254
25.8378,2931
25.8435,2916
25.8492,3445
25.8549,3016
25.8607,2976
25.8664,2184
25.8721,2478
25.8778,1980
25.8836,1637
25.8893,1141
25.895,1677
25.9007,1349
25.9064,1082
25.9122,1347
25.9179,663
25.9236,1268
25.9293,996
25.9351,1267
25.9408,1548
25.9465,964
25.9522,708
25.9579,1115
25.9637,1320
25.9694,1206
25.9751,1172
25.9808,1124
25.9866,810
25.9923,1384
25.998,1224
26.0037,1390
26.0094,1543
26.0152,726
26.0209,1510
26.0266,895
26.0323,1274
26.038,730
26.0438,1299
26.0495,1021
26.0552,1380
26.0609,868
26.0667,1469
26.0724,1445
26.0781,1116
26.0838,1537
26.0895,1678
26.0953,2711
26.101,2323
26.1067,3216
26.1124,3053
26.1182,3740
26.1239,3091
26.1296,2151
26.1353,2224
26.141,2028
26.1468,1204
26.1525,1036
26.1582,1592
26.1639,449
26.1697,1025
26.1754,977
26.1811,1240
26.1868,1015
26.1925,869
26.1983,1109
26.204,1131
26.2097,852
26.2154,1076
26.2212,704
26.2269,986
26.2326,1460
26.2383,912
26.244,1153
26.2498,1257
26.2555,1066
26.2612,641
26.2669,554
26.2727,1410
26.2784,1021
26.2841,704
26.2898,996
26.2955,915
26.3013,1164
26.307,1511
26.3127,1458
26.3184,909
26.3241,1138
26.3299,1744
26.3356,847
26.3413,1254
26.347,1313
26.3528,2014
26.3585,1212
26.3642,1381
26.3699,798
26.3756,1011
26.3814,1095
26.3871,1541
26.3928,942
26.3985,1497
26.4043,1090
26.41,1360
26.4157,1017
26.4214,1212
26.4271,744
26.4329,1068
26.4386,1528
26.4443,1452
26.45,793
26.4558,1183
26.4615,1422
26.4672,949
26.4729,2192
26.4786,730
26.4844,1487
26.4901,1141
26.4958,512
26.5015,991
26.5073,1317
26.513,719
26.5187,589
26.5244,1325
26.5301,903
26.5359,1304
26.5416,1409
26.5473,741
26.553,1402
26.5588,1277
26.5645,1150
26.5702,846
26.5759,1071
26.5816,751
26.5874,1112
26.5931,1572
26.5988,810
26.6045,968
26.6103,1483
26.616,914
26.6217,1556
26.6274,1435
26.6331,720
26.6389,984
26.6446,1364
26.6503,1618
26.656,3036
26.6618,3094
26.6675,3379
26.6732,4694
26.6789,4834
26.6846,4265
26.6904,4026
26.6961,3638
26.7018,2878
26.7075,1518
26.7132,1859
26.719,2126
26.7247,1552
26.7304,1487
26.7361,1250
26.7419,1454
26.7476,841
26.7533,1323
26.759,1830
26.7647,1925
26.7705,2158
26.7762,2480
26.7819,4141
26.7876,5769
26.7934,5400
26.7991,6645
26.8048,5408
26.8105,4593
26.8162,4318
26.822,3186
26.8277,2333
26.8334,1002
26.8391,1676
26.8449,1375
26.8506,1091
26.8563,1703
26.862,1001
26.8677,1891
26.8735,1183
26.8792,697
26.8849,1047
26.8906,1786
26.8964,1292
26.9021,1606
26.9078,1046
26.9135,574
26.9192,852
26.925,1798
26.9307,733
26.9364,992
26.9421,1388
26.9479,1632
26.9536,910
26.9593,1192
26.965,1074
26.9707,1417
26.9765,1372
26.9822,1349
26.9879,1225
26.9936,864
26.9994,1085
27.0051,991
27.0108,1305
27.0165,1264
27.0222,1349
27.028,996
27.0337,1080
27.0394,1294
27.0451,1441
27.0508,866
27.0566,1029
27.0623,949
27.068,634
27.0737,622
27.0795,654
27.0852,1107
27.0909,922
27.0966,971
27.1023,1623
27.1081,967
27.1138,1419
27.1195,470
27.1252,1571
27.131,1546
27.1367,945
27.1424,879
27.1481,942
27.1538,840
27.1596,1015
27.1653,1714
27.171,779
27.1767,1308
27.1825,1261
27.1882,1035
27.1939,1439
27.1996,1159
27.2053,1585
27.2111,879
27.2168,1131
27.2225,1419
27.2282,1240
27.234,1301
27.2397,1084
27.2454,830
27.2511,1107
27.2568,1398
27.2626,1063
27.2683,1704
27.274,1308
27.2797,1247
27.2855,912
27.2912,392
27.2969,1676
27.3026,1309
27.3083,896
27.3141,1221
27.3198,1280
27.3255,1189
27.3312,1186
27.337,485
27.3427,659
27.3484,1003
27.3541,998
27.3598,1216
27.3656,893
27.3713,1176
27.377,837
27.3827,1104
27.3884,677
27.3942,930
27.3999,954
27.4056,1303
27.4113,1131
27.4171,881
27.4228,632
27.4285,1456
27.4342,943
27.4399,1161
27.4457,568
27.4514,1238
27.4571,1104
27.4628,1483
27.4686,962
27.4743,1958
27.48,1258
27.4857,1303
27.4914,1633
27.4972,2375
27.5029,2033
27.5086,1387
27.5143,1182
27.5201,692
27.5258,1471
27.5315,835
27.5372,952
27.5429,1273
27.5487,957
27.5544,879
27.5601,1085
27.5658,1814
27.5716,742
27.5773,1054
27.583,1144
27.5887,875
27.5944,1028
27.6002,1039
27.6059,831
27.6116,1069
27.6173,768
27.6231,814
27.6288,860
27.6345,719
27.6402,1122
27.6459,1221
27.6517,961
27.6574,996
27.6631,1009
27.6688,999
27.6746,897
27.6803,702
27.686,1481
27.6917,1034
27.6974,999
27.7032,957
27.7089,1261
27.7146,718
27.7203,1500
27.7261,1015
27.7318,1083
27.7375,1712
27.7432,1580
27.7489,1063
27.7547,541
27.7604,1466
27.7661,1789
27.7718,704
27.7775,957
27.7833,990
27.789,833
27.7947,298
27.8004,1120
27.8062,870
27.8119,687
27.8176,1173
27.8233,1384
27.829,1620
27.8348,1136
27.8405,910
27.8462,1198
27.8519,1461
27.8577,707
27.8634,1137
27.8691,897
27.8748,579
27.8805,808
27.8863,983
27.892,1064
27.8977,1639
27.9034,1171
27.9092,1394
27.9149,1250
27.9206,1444
27.9263,1169
27.932,1320
27.9378,1645
27.9435,985
27.9492,1084
27.9549,277
27.9607,847
27.9664,1351
27.9721,1324
27.9778,1158
27.9835,944
27.9893,379
27.995,1145
28.0007,901
28.0064,970
28.0122,719
28.0179,1077
28.0236,738
28.0293,1231
28.035,694
28.0408,672
28.0465,1865
28.0522,1165
28.0579,1110
28.0637,909
28.0694,882
28.0751,413
28.0808,878
28.0865,1344
28.0923,938
28.098,909
28.1037,1170
28.1094,915
28.1151,978
28.1209,1042
28.1266,909
28.1323,1134
28.138,1058
28.1438,745
28.1495,2133
28.1552,1384
28.1609,803
28.1666,879
28.1724,1068
28.1781,1045
28.1838,1633
28.1895,1154
28.1953,575
28.201,676
28.2067,1108
28.2124,887
28.2181,958
28.2239,930
28.2296,1061
28.2353,1110
28.241,658
28.2468,1122
28.2525,820
28.2582,1695
28.2639,1302
28.2696,1233
28.2754,940
28.2811,929
28.2868,1720
28.2925,795
28.2983,1635
28.304,1347
28.3097,682
28.3154,986
28.3211,644
28.3269,1239
28.3326,1350
28.3383,952
28.344,1402
28.3498,2322
28.3555,1222
28.3612,1856
28.3669,1098
28.3726,2021
28.3784,1210
28.3841,1679
28.3898,1754
28.3955,2233
28.4013,1188
28.407,1153
28.4127,1788
28.4184,1632
28.4241,1773
28.4299,1139
28.4356,890
28.4413,1705
28.447,1039
28.4527,975
28.4585,1169
28.4642,1133
28.4699,1348
28.4756,1161
28.4814,1287
28.4871,1348
28.4928,1405
28.4985,1198
28.5042,1209
28.51,1261
28.5157,689
28.5214,1179
28.5271,1524
28.5329,1325
28.5386,1317
28.5443,1402
28.55,575
28.5557,815
28.5615,1043
28.5672,563
28.5729,653
28.5786,1340
28.5844,503
28.5901,1096
28.5958,679
28.6015,772
28.6072,785
28.613,1377
28.6187,909
28.6244,1047
28.6301,237
28.6359,954
28.6416,673
28.6473,1024
28.653,1318
28.6587,784
28.6645,995
28.6702,746
28.6759,577
28.6816,625
28.6874,1850
28.6931,1068
28.6988,1539
28.7045,1993
28.7102,2057
28.716,1599
28.7217,2048
28.7274,2088
28.7331,2293
28.7389,2129
28.7446,1349
28.7503,1733
28.756,1205
28.7617,1257
28.7675,845
28.7732,1543
28.7789,1558
28.7846,1747
28.7903,1336
28.7961,972
28.8018,1203
28.8075,937
28.8132,1041
28.819,508
28.8247,773
28.8304,1172
28.8361,618
28.8418,668
28.8476,1254
28.8533,1181
28.859,1535
28.8647,1357
28.8705,1080
28.8762,994
28.8819,1251
28.8876,1269
28.8933,625
28.8991,1150
28.9048,411
28.9105,617
28.9162,393
28.922,508
28.9277,665
28.9334,919
28.9391,369
28.9448,731
28.9506,1247
28.9563,1245
28.962,1230
28.9677,858
28.9735,1366
28.9792,971
28.9849,1588
28.9906,901
28.9963,865
29.0021,1531
29.0078,951
29.0135,1280
29.0192,1137
29.025,1178
29.0307,559
29.0364,1068
29.0421,678
29.0478,1001
29.0536,1089
29.0593,515
29.065,510
29.0707,935
29.0765,711
29.0822,707
29.0879,1107
29.0936,1024
29.0993,926
29.1051,1017
29.1108,808
29.1165,613
29.1222,1409
29.1279,1002
29.1337,1610
29.1394,1147
29.1451,1455
29.1508,1076
29.1566,1155
29.1623,1647
29.168,1745
29.1737,1209
29.1794,1417
29.1852,980
29.1909,1106
29.1966,976
29.2023,1309
29.2081,824
29.2138,711
29.2195,861
29.2252,647
29.2309,1414
29.2367,937
29.2424,770
29.2481,1080
29.2538,1461
29.2596,751
29.2653,992
29.271,730
29.2767,1058
29.2824,1109
29.2882,618
29.2939,894
29.2996,895
29.3053,432
29.3111,660
29.3168,1167
29.3225,1410
29.3282,1219
29.3339,1019
29.3397,541
29.3454,822
29.3511,878
29.3568,726
29.3626,965
29.3683,1012
29.374,644
29.3797,865
29.3854,763
29.3912,841
29.3969,1686
29.4026,839
29.4083,713
29.4141,957
29.4198,927
29.4255,902
29.4312,1043
29.4369,1499
29.4427,1024
29.4484,813
29.4541,794
29.4598,1213
29.4655,1069
29.4713,832
29.477,1188
29.4827,1331
29.4884,1251
29.4942,1283
29.4999,1155
29.5056,521
29.5113,561
29.517,686
29.5228,305
29.5285,781
29.5342,800
29.5399,907
29.5457,654
29.5514,1199
29.5571,2094
29.5628,1157
29.5685,615
29.5743,1490
29.58,1271
29.5857,478
29.5914,1052
29.5972,1154
29.6029,790
29.6086,1480
29.6143,1812
29.62,906
29.6258,963
29.6315,873
29.6372,1308
29.6429,1053
29.6487,1137
29.6544,1226
29.6601,1277
29.6658,832
29.6715,797
29.6773,1527
29.683,722
29.6887,542
29.6944,674
29.7002,1288
29.7059,1389
29.7116,755
29.7173,936
29.723,1167
29.7288,820
29.7345,689
29.7402,1111
29.7459,735
29.7517,690
29.7574,795
29.7631,911
29.7688,749
29.7745,959
29.7803,982
29.786,847
29.7917,1025
29.7974,967
29.8031,786
29.8089,1003
29.8146,800
29.8203,847
29.826,1123
29.8318,611
29.8375,929
29.8432,712
29.8489,554
29.8546,932
29.8604,344
29.8661,521
29.8718,694
29.8775,833
29.8833,649
29.889,947
29.8947,1049
29.9004,801
29.9061,1005
29.9119,1307
29.9176,875
29.9233,944
29.929,1076
29.9348,1334
29.9405,687
29.9462,1434
29.9519,712
29.9576,1652
29.9634,924
29.9691,2223
29.9748,3253
29.9805,4779
29.9863,6109
29.992,6796
29.9977,6105
30.0034,4975
30.0091,4286
30.0149,2598
30.0206,1837
30.0263,1797
30.032,1371
30.0378,816
30.0435,613
30.0492,718
30.0549,1032
30.0606,640
30.0664,1448
30.0721,1035
30.0778,689
30.0835,1106
30.0893,969
30.095,875
30.1007,971
30.1064,494
30.1121,735
30.1179,881
30.1236,1074
30.1293,1124
30.135,573
30.1407,365
30.1465,453
30.1522,806
30.1579,1030
30.1636,1640
30.1694,1257
30.1751,878
30.1808,1131
30.1865,1284
30.1922,766
30.198,1689
30.2037,920
30.2094,1139
30.2151,1196
30.2209,694
30.2266,692
30.2323,1147
30.238,637
30.2437,793
30.2495,1185
30.2552,175
30.2609,174
30.2666,1219
30.2724,885
30.2781,609
30.2838,858
30.2895,756
30.2952,510
30.301,1167
30.3067,990
30.3124,861
30.3181,719
30.3239,848
30.3296,551
30.3353,1100
30.341,900
30.3467,584
30.3525,498
30.3582,1086
30.3639,698
30.3696,773
30.3754,1056
30.3811,743
30.3868,728
30.3925,894
30.3982,668
30.404,1219
30.4097,545
30.4154,587
30.4211,597
30.4269,1210
30.4326,1004
30.4383,604
30.444,736
30.4497,1212
30.4555,559
30.4612,1114
30.4669,1394
30.4726,1276
30.4784,577
30.4841,748
30.4898,629
30.4955,798
30.5012,1184
30.507,624
30.5127,967
30.5184,834
30.5241,950
30.5298,1298
30.5356,942
30.5413,816
30.547,837
30.5527,811
30.5585,1175
30.5642,787
30.5699,958
30.5756,1074
30.5813,884
30.5871,961
30.5928,1443
30.5985,1150
30.6042,618
30.61,878
30.6157,891
30.6214,1344
30.6271,783
30.6328,838
30.6386,1221
30.6443,1192
30.65,1030
30.6557,833
30.6615,1089
30.6672,1124
30.6729,547
30.6786,736
30.6843,994
30.6901,1522
30.6958,753
30.7015,1294
30.7072,901
30.713,578
30.7187,750
30.7244,965
30.7301,1906
30.7358,2118
30.7416,2375
30.7473,2406
30.753,2867
30.7587,2388
30.7645,2354
30.7702,3017
30.7759,2088
30.7816,1280
30.7873,2000
30.7931,1845
30.7988,1701
30.8045,1387
30.8102,1253
30.816,1831
30.8217,1576
30.8274,1533
30.8331,889
30.8388,1371
30.8446,1358
30.8503,1250
30.856,1098
30.8617,1495
30.8674,803
30.8732,1052
30.8789,818
30.8846,1617
30.8903,1261
30.8961,983
30.9018,1028
30.9075,1553
30.9132,2182
30.9189,2685
30.9247,2718
30.9304,2252
30.9361,3196
30.9418,2532
30.9476,2082
30.9533,1610
30.959,1473
30.9647,1660
30.9704,1405
30.9762,1909
30.9819,1269
30.9876,973
30.9933,1321
30.9991,1040
31.0048,713
31.0105,1009
31.0162,1021
31.0219,868
31.0277,1122
31.0334,1115
31.0391,921
31.0448,1079
31.0506,702
31.0563,796
31.062,715
31.0677,1062
31.0734,988
31.0792,525
31.0849,1280
31.0906,552
31.0963,764
31.1021,587
31.1078,1337
31.1135,1300
31.1192,596
31.1249,728
31.1307,1122
31.1364,1047
31.1421,978
31.1478,700
31.1536,1262
31.1593,1112
31.165,1164
31.1707,1954
31.1764,3301
31.1822,2613
31.1879,2870
31.1936,1777
31.1993,1872
31.205,2365
31.2108,2913
31.2165,1269
31.2222,1708
31.2279,1358
31.2337,1757
31.2394,1779
31.2451,1493
31.2508,1462
31.2565,1234
31.2623,947
31.268,1377
31.2737,1231
31.2794,2124
31.2852,1763
31.2909,859
31.2966,1027
31.3023,1329
31.308,1319
31.3138,1669
31.3195,1301
31.3252,1125
31.3309,2298
31.3367,1707
31.3424,1494
31.3481,1703
31.3538,1276
31.3595,1161
31.3653,816
31.371,1246
31.3767,1077
31.3824,1135
31.3882,1099
31.3939,1052
31.3996,1555
31.4053,1336
31.411,1098
31.4168,1065
31.4225,922
31.4282,1254
31.4339,1373
31.4397,2034
31.4454,1676
31.4511,911
31.4568,952
31.4625,909
31.4683,705
31.474,895
31.4797,898
31.4854,576
31.4912,531
31.4969,903
31.5026,970
31.5083,604
31.514,559
31.5198,697
31.5255,1212
31.5312,684
31.5369,523
31.5426,913
31.5484,1591
31.5541,1307
31.5598,691
31.5655,828
31.5713,1609
31.577,916
31.5827,997
31.5884,1261
31.5941,973
31.5999,708
31.6056,863
31.6113,1048
31.617,979
31.6228,1062
31.6285,488
31.6342,1286
31.6399,472
31.6456,1424
31.6514,920
31.6571,1221
31.6628,1381
31.6685,1109
31.6743,1757
31.68,992
31.6857,1651
31.6914,1627
31.6971,897
31.7029,1267
31.7086,1060
31.7143,983
31.72,1469
31.7258,1270
31.7315,996
31.7372,1146
31.7429,755
31.7486,466
31.7544,1126
31.7601,1204
31.7658,991
31.7715,1260
31.7773,855
31.783,583
31.7887,997
31.7944,948
31.8001,1109
31.8059,946
31.8116,1106
31.8173,569
31.823,920
31.8288,960
31.8345,1434
31.8402,981
31.8459,679
31.8516,1243
31.8574,1432
31.8631,898
31.8688,1951
31.8745,1605
31.8802,1277
31.886,1763
31.8917,2628
31.8974,2133
31.9031,1679
31.9089,1647
31.9146,2555
31.9203,2568
31.926,1414
31.9317,1549
31.9375,1252
31.9432,2025
31.9489,1043
31.9546,1537
31.9604,1617
31.9661,1739
31.9718,1127
31.9775,900
31.9832,1147
31.989,1374
31.9947,1698
32.0004,1210
32.0061,1108
32.0119,870
32.0176,862
32.0233,1144
32.029,1312
32.0347,722
32.0405,804
32.0462,973
32.0519,1500
32.0576,980
32.0634,1193
32.0691,1304
32.0748,1559
32.0805,1169
32.0862,1129
32.0919,1289
32.0977,872
32.1034,1183
32.1091,1322
32.1148,996
32.1206,607
32.1263,1006
32.132,771
32.1377,1134
32.1435,186
32.1492,734
32.1549,1281
32.1606,859
32.1664,269
32.1721,913
32.1778,745
32.1835,908
32.1892,985
32.1949,753
32.2007,994
32.2064,797
32.2121,202
32.2178,865
32.2236,828
32.2293,508
32.235,710
32.2407,1387
32.2465,1471
32.2522,1126
32.2579,1254
32.2636,1159
32.2693,985
32.2751,1045
32.2808,615
32.2865,1359
32.2922,919
32.298,793
32.3037,1110
32.3094,989
32.3151,1471
32.3208,655
32.3266,751
32.3323,626
32.338,651
32.3437,1207
32.3494,729
32.3552,788
32.3609,1278
32.3666,723
32.3723,1559
32.3781,911
32.3838,646
32.3895,604
32.3952,1052
32.401,948
32.4067,1172
32.4124,776
32.4181,1006
32.4238,908
32.4295,973
32.4353,569
32.441,921
32.4467,1252
32.4524,1094
32.4582,835
32.4639,600
32.4696,675
32.4753,1048
32.4811,1602
32.4868,614
32.4925,743
32.4982,552
32.504,1427
32.5097,1705
32.5154,1328
32.5211,1180
32.5268,757
32.5326,1485
32.5383,574
32.544,1097
32.5497,1061
32.5554,1090
32.5612,999
32.5669,988
32.5726,923
32.5783,636
32.584,942
32.5898,1016
32.5955,1017
32.6012,1439
32.6069,864
32.6127,1350
32.6184,1951
32.6241,1404
32.6298,950
32.6356,741
32.6413,1241
32.647,1236
32.6527,337
32.6584,745
32.6642,561
32.6699,932
32.6756,686
32.6813,2197
32.687,2087
32.6928,3669
32.6985,4176
32.7042,6255
32.7099,8460
32.7157,9855
32.7214,9979
32.7271,8892
32.7328,9652
32.7385,7975
32.7443,5369
32.75,4057
32.7557,3223
32.7614,2352
32.7672,1762
32.7729,1712
32.7786,1872
32.7843,1329
32.7901,1040
32.7958,1867
32.8015,1300
32.8072,1947
32.8129,1874
32.8186,1408
32.8244,1772
32.8301,2043
32.8358,2318
32.8415,2183
32.8473,1963
32.853,1507
32.8587,1994
32.8644,1855
32.8702,1860
32.8759,1668
32.8816,1484
32.8873,1591
32.8931,1197
32.8988,683
32.9045,731
32.9102,856
32.9159,1516
32.9217,1046
32.9274,1512
32.9331,919
32.9388,1466
32.9445,1001
32.9503,1327
32.956,1080
32.9617,908
32.9674,585
32.9731,955
32.9789,703
32.9846,1225
32.9903,799
32.996,1156
33.0018,1309
33.0075,1095
33.0132,941
33.0189,1053
33.0247,599
33.0304,833
33.0361,696
33.0418,778
33.0475,787
33.0533,1245
33.059,1403
33.0647,662
33.0704,1130
33.0761,1152
33.0819,1806
33.0876,934
33.0933,558
33.099,1330
33.1048,1101
33.1105,1165
33.1162,1463
33.1219,933
33.1277,952
33.1334,926
33.1391,549
33.1448,1113
33.1505,1022
33.1563,1055
33.162,1120
33.1677,1139
33.1734,1373
33.1792,1183
33.1849,1037
33.1906,1283
33.1963,970
33.202,2108
33.2077,2353
33.2135,1432
33.2192,2136
33.2249,1910
33.2306,2288
33.2364,2298
33.2421,1634
33.2478,1831
33.2535,1499
33.2593,1234
33.265,1287
33.2707,596
33.2764,573
33.2821,538
33.2879,1337
33.2936,1516
33.2993,1206
33.305,1244
33.3107,952
33.3165,1710
33.3222,2407
33.3279,2718
33.3336,3313
33.3394,4346
33.3451,4576
33.3508,4262
33.3565,4989
33.3623,3814
33.368,3144
33.3737,2733
33.3794,2397
33.3851,2368
33.3909,1500
33.3966,1647
33.4023,1113
33.408,1460
33.4138,1545
33.4195,1758
33.4252,1166
33.4309,724
33.4366,1035
33.4423,1104
33.4481,1157
33.4538,938
33.4595,973
33.4652,1106
33.471,836
33.4767,1250
33.4824,1150
33.4881,924
33.4939,1153
33.4996,1083
33.5053,1144
33.511,937
33.5168,1526
33.5225,982
33.5282,1119
33.5339,1187
33.5396,1137
33.5453,1260
33.5511,1291
33.5568,1428
33.5625,2093
33.5682,2235
33.574,2792
33.5797,3937
33.5854,3226
33.5911,4377
33.5969,4205
33.6026,3886
33.6083,2892
33.614,2821
33.6197,2327
33.6255,2434
33.6312,2087
33.6369,1708
33.6426,2148
33.6484,1282
33.6541,1960
33.6598,1417
33.6655,1178
33.6712,1625
33.677,1588
33.6827,1185
33.6884,1403
33.6941,925
33.6998,1554
33.7056,1561
33.7113,1075
33.717,1085
33.7227,1719
33.7285,1174
33.7342,950
33.7399,1853
33.7456,901
33.7514,1040
33.7571,1326
33.7628,1693
33.7685,1372
33.7742,1650
33.7799,1186
33.7857,1145
33.7914,1524
33.7971,1367
33.8028,751
33.8086,1064
33.8143,934
33.82,659
33.8257,1092
33.8314,1045
33.8372,1150
33.8429,817
33.8486,905
33.8543,1173
33.8601,1627
33.8658,1749
33.8715,1283
33.8772,1167
33.883,1266
33.8887,1243
33.8944,922
33.9001,1330
33.9059,1014
33.9116,714
33.9173,883
33.923,1034
33.9287,1541
33.9344,766
33.9402,929
33.9459,935
33.9516,1196
33.9573,866
33.9631,1805
33.9688,1340
33.9745,1545
33.9802,732
33.986,1214
33.9917,1285
33.9974,1484
34.0031,856
34.0088,1268
34.0146,900
34.0203,1425
34.026,1913
34.0317,1549
34.0375,1199
34.0432,901
34.0489,984
34.0546,2025
34.0603,1332
34.0661,1067
34.0718,1319
34.0775,1516
34.0832,767
34.0889,1417
34.0947,785
34.1004,1639
34.1061,1302
34.1118,1012
34.1176,870
34.1233,980
34.129,436
34.1347,869
34.1405,678
34.1462,1272
34.1519,1122
34.1576,1100
34.1633,1030
34.169,1158
34.1748,911
34.1805,792
34.1862,831
34.1919,1624
34.1977,966
34.2034,1180
34.2091,1737
34.2148,1011
34.2206,755
34.2263,1165
34.232,854
34.2377,1359
34.2435,1153
34.2492,1186
34.2549,881
34.2606,971
34.2663,1411
34.2721,1187
34.2778,1425
34.2835,1668
34.2892,1122
34.2949,847
34.3007,1618
34.3064,1554
34.3121,1058
34.3178,956
34.3235,1926
34.3293,1235
34.335,1236
34.3407,678
34.3464,1379
34.3522,2723
34.3579,4593
34.3636,5792
34.3693,7721
34.3751,9894
34.3808,10383
34.3865,10110
34.3922,9146
34.3979,7247
34.4037,5511
34.4094,4190
34.4151,4261
34.4208,4919
34.4265,7398
34.4323,10815
34.438,19018
34.4437,28826
34.4494,41073
34.4552,53536
34.4609,64515
34.4666,70179
34.4723,70026
34.4781,56996
34.4838,44608
34.4895,29667
34.4952,18829
34.5009,10560
34.5067,6316
34.5124,3524
34.5181,2024
34.5238,2000
34.5296,1948
34.5353,2590
34.541,1817
34.5467,1318
34.5524,1774
34.5581,1199
34.5639,1532
34.5696,1714
34.5753,1281
34.581,1814
34.5868,2089
34.5925,2269
34.5982,1209
34.6039,1702
34.6097,926
34.6154,1004
34.6211,1037
34.6268,825
34.6325,1411
34.6383,768
34.644,1715
34.6497,1190
34.6554,1527
34.6611,2305
34.6669,693
34.6726,1463
34.6783,1097
34.684,1473
34.6898,1031
34.6955,1632
34.7012,1022
34.7069,1140
34.7126,1202
34.7184,1140
34.7241,1351
34.7298,1376
34.7355,662
34.7413,1574
34.747,1087
34.7527,1274
34.7584,1677
34.7642,1566
34.7699,1235
34.7756,1392
34.7813,1349
34.787,958
34.7928,1513
34.7985,1265
34.8042,1563
34.8099,1197
34.8156,648
34.8214,1409
34.8271,1095
34.8328,1130
34.8385,1080
34.8443,844
34.85,724
34.8557,1227
34.8614,1084
34.8672,920
34.8729,1054
34.8786,1268
34.8843,986
34.89,1760
34.8958,1289
34.9015,1288
34.9072,1396
34.9129,585
34.9187,1419
34.9244,988
34.9301,1819
34.9358,1743
34.9415,1806
34.9472,1796
34.953,734
34.9587,1592
34.9644,1518
34.9701,1215
34.9759,1482
34.9816,1514
34.9873,1395
34.993,1319
34.9988,1104
35.0045,1192
35.0102,905
35.0159,1112
35.0216,894
35.0274,1945
35.0331,1328
35.0388,1517
35.0445,1051
35.0502,1601
35.056,1279
35.0617,1329
35.0674,1775
35.0731,854
35.0789,1931
35.0846,1970
35.0903,1171
35.096,1030
35.1018,1775
35.1075,1413
35.1132,1031
35.1189,1074
35.1246,1556
35.1304,1325
35.1361,801
35.1418,1599
35.1475,1463
35.1533,1408
35.159,1158
35.1647,1320
35.1704,1334
35.1761,1092
35.1819,1453
35.1876,980
35.1933,1009
35.199,978
35.2048,1194
35.2105,1448
35.2162,1808
35.2219,1192
35.2276,795
35.2334,1349
35.2391,1514
35.2448,970
35.2505,2708
35.2563,2741
35.262,2771
35.2677,3035
35.2734,3190
35.2791,2718
35.2848,2211
35.2906,2486
35.2963,1332
35.302,1376
35.3077,1404
35.3135,1236
35.3192,1490
35.3249,1481
35.3306,1579
35.3364,1157
35.3421,1661
35.3478,1441
35.3535,1113
35.3592,1540
35.365,1409
35.3707,1136
35.3764,1175
35.3821,1596
35.3879,1144
35.3936,1324
35.3993,1012
35.405,2076
35.4107,1233
35.4165,1727
35.4222,1642
35.4279,1183
35.4336,1537
35.4394,1152
35.4451,1219
35.4508,859
35.4565,872
35.4622,1631
35.468,1578
35.4737,1122
35.4794,966
35.4851,1895
35.4909,774
35.4966,1305
35.5023,1381
35.508,1315
35.5137,1655
35.5194,1466
35.5252,1621
35.5309,1552
35.5366,1755
35.5423,1089
35.5481,2011
35.5538,1057
35.5595,2002
35.5652,1637
35.571,1338
35.5767,1136
35.5824,1460
35.5881,1360
35.5939,1464
35.5996,2190
35.6053,1364
35.611,1185
35.6167,1483
35.6225,1083
35.6282,888
35.6339,1585
35.6396,1888
35.6454,1308
35.6511,1012
35.6568,1584
35.6625,876
35.6682,1746
35.674,1527
35.6797,1341
35.6854,1415
35.6911,1179
35.6968,987
35.7026,1192
35.7083,1189
35.714,1508
35.7197,2063
35.7255,1595
35.7312,1061
35.7369,1948
35.7426,1484
35.7483,1752
35.7541,1178
35.7598,1427
35.7655,1289
35.7712,1302
35.7769,1261
35.7827,1330
35.7884,2018
35.7941,1558
35.7998,1688
35.8056,2089
35.8113,1708
35.817,1004
35.8227,1707
35.8285,1743
35.8342,1584
35.8399,1592
35.8456,1672
35.8513,1452
35.8571,1091
35.8628,1406
35.8685,1884
35.8742,1440
35.88,1213
35.8857,1551
35.8914,1899
35.8971,2206
35.9028,2059
35.9085,2342
35.9143,1661
35.92,1202
35.9257,1707
35.9315,1240
35.9372,2095
35.9429,2244
35.9486,1664
35.9543,1323
35.9601,1316
35.9658,1642
35.9715,1519
35.9772,2007
35.983,1448
35.9887,1765
35.9944,1982
36.0001,1758
36.0058,1760
36.0116,1394
36.0173,1882
36.023,1288
36.0287,1550
36.0344,1339
36.0402,1417
36.0459,1612
36.0516,2068
36.0573,1644
36.0631,1372
36.0688,1746
36.0745,1890
36.0802,1647
36.0859,1669
36.0917,1380
36.0974,1523
36.1031,1434
36.1088,1298
36.1146,1459
36.1203,1370
36.126,1369
36.1317,2306
36.1374,1544
36.1432,1033
36.1489,1016
36.1546,1837
36.1603,1975
36.166,1860
36.1718,1629
36.1775,1570
36.1832,1674
36.1889,1219
36.1947,1137
36.2004,1472
36.2061,2166
36.2118,1388
36.2176,1807
36.2233,1083
36.229,1010
36.2347,1070
36.2404,2071
36.2462,1147
36.2519,1472
36.2576,1482
36.2633,1832
36.2691,1412
36.2748,1801
36.2805,1668
36.2862,1356
36.2919,1411
36.2977,1514
36.3034,1046
36.3091,1653
36.3148,1739
36.3206,1222
36.3263,1177
36.332,2126
36.3377,1175
36.3434,2234
36.3492,1503
36.3549,949
36.3606,1742
36.3663,2157
36.372,1671
36.3778,1099
36.3835,2274
36.3892,1387
36.3949,1301
36.4006,1172
36.4064,1400
36.4121,1923
36.4178,1793
36.4235,1709
36.4293,1591
36.435,1679
36.4407,1212
36.4464,1997
36.4522,1628
36.4579,1830
36.4636,1616
36.4693,1834
36.475,1660
36.4808,1723
36.4865,1206
36.4922,1687
36.4979,1375
36.5037,2019
36.5094,1674
36.5151,1676
36.5208,1451
36.5265,1437
36.5323,1314
36.538,1272
36.5437,1231
36.5494,1161
36.5552,1268
36.5609,1053
36.5666,1425
36.5723,1542
36.578,1584
36.5838,1496
36.5895,1887
36.5952,2173
36.6009,1348
36.6067,855
36.6124,2185
36.6181,2593
36.6238,1458
36.6295,853
36.6352,1480
36.641,1212
36.6467,1429
36.6524,1449
36.6581,1442
36.6639,1503
36.6696,2285
36.6753,2415
36.681,2901
36.6868,3768
36.6925,3914
36.6982,5994
36.7039,5309
36.7096,6239
36.7154,6457
36.7211,4704
36.7268,4862
36.7325,3475
36.7383,3101
36.744,2603
36.7497,2835
36.7554,2534
36.7611,2321
36.7669,2749
36.7726,2470
36.7783,1619
36.784,2217
36.7898,2714
36.7955,2515
36.8012,2553
36.8069,2477
36.8126,2532
36.8184,1643
36.8241,2462
36.8298,2991
36.8355,2286
36.8413,2439
36.847,3023
36.8527,2598
36.8584,2760
36.8641,2281
36.8699,2111
36.8756,2485
36.8813,2260
36.887,2567
36.8927,2839
36.8985,3559
36.9042,3183
36.9099,2966
36.9156,3094
36.9214,2971
36.9271,2806
36.9328,2139
36.9385,3201
36.9443,2767
36.95,3733
36.9557,3815
36.9614,3148
36.9671,3452
36.9729,2482
36.9786,3693
36.9843,2961
36.99,3335
36.9958,3482
37.0015,3905
37.0072,3892
37.0129,4278
37.0186,3150
37.0243,3173
37.0301,4418
37.0358,3651
37.0415,4332
37.0472,4071
37.053,2946
37.0587,3886
37.0644,4519
37.0701,4524
37.0759,4382
37.0816,4252
37.0873,3821
37.093,3275
37.0987,4917
37.1045,4377
37.1102,4784
37.1159,5010
37.1216,3565
37.1274,4858
37.1331,3874
37.1388,4461
37.1445,5633
37.1502,3970
37.156,4095
37.1617,4753
37.1674,5049
37.1731,4566
37.1789,4745
37.1846,4702
37.1903,4915
37.196,5371
37.2017,4799
37.2075,4903
37.2132,5240
37.2189,5004
37.2246,5542
37.2304,6465
37.2361,6204
37.2418,6467
37.2475,6486
37.2532,5535
37.2589,5793
37.2647,6142
37.2704,5500
37.2761,6100
37.2818,6097
37.2876,6912
37.2933,6106
37.299,6703
37.3047,6209
37.3105,7422
37.3162,7452
37.3219,7573
37.3276,7510
37.3334,7059
37.3391,7733
37.3448,7822
37.3505,7878
37.3562,7722
37.362,9077
37.3677,8568
37.3734,8781
37.3791,9631
37.3848,9436
37.3906,8863
37.3963,9290
37.402,8156
37.4077,9578
37.4135,9303
37.4192,9257
37.4249,11621
37.4306,9245
37.4363,9894
37.4421,10136
37.4478,10073
37.4535,10026
37.4592,9703
37.465,10849
37.4707,9999
37.4764,11010
37.4821,11621
37.4878,11804
37.4936,10950
37.4993,12606
37.505,12411
37.5107,11700
37.5164,11954
37.5222,11973
37.5279,12870
37.5336,13329
37.5393,12602
37.5451,13408
37.5508,12041
37.5565,13836
37.5622,11012
37.568,11370
37.5737,13035
37.5794,12822
37.5851,12261
37.5908,12046
37.5966,10731
37.6023,11078
37.608,10290
37.6137,11901
37.6195,12412
37.6252,12304
37.6309,11643
37.6366,11734
37.6423,12021
37.6481,12163
37.6538,10865
37.6595,12160
37.6652,12914
37.671,14626
37.6767,17591
37.6824,20859
37.6881,23626
37.6938,29646
37.6996,31064
37.7053,35097
37.711,32196
37.7167,29216
37.7224,26727
37.7282,22574
37.7339,18001
37.7396,15379
37.7453,13300
37.751,11920
37.7568,10281
37.7625,12070
37.7682,11013
37.7739,10944
37.7797,13829
37.7854,16479
37.7911,24486
37.7968,41306
37.8026,75265
37.8083,122064
37.814,193275
37.8197,282244
37.8254,373315
37.8312,467717
37.8369,524269
37.8426,534050
37.8483,506916
37.8541,443029
37.8598,360691
37.8655,258831
37.8712,180505
37.8769,110759
37.8827,68385
37.8884,45938
37.8941,30991
37.8998,23274
37.9056,19902
37.9113,16264
37.917,15850
37.9227,13266
37.9284,14440
37.9342,12948
37.9399,12552
37.9456,12416
37.9513,12971
37.9571,12588
37.9628,12121
37.9685,12713
37.9742,11693
37.9799,13093
37.9857,10771
37.9914,11887
37.9971,12105
38.0028,10198
38.0086,11561
38.0143,10372
38.02,9405
38.0257,10285
38.0314,9791
38.0372,8740
38.0429,9210
38.0486,9976
38.0543,9403
38.06,9750
38.0658,9002
38.0715,10476
38.0772,14074
38.0829,17910
38.0887,22511
38.0944,30159
38.1001,44980
38.1058,61653
38.1115,84824
38.1173,113579
38.123,146761
38.1287,189767
38.1344,230242
38.1401,264595
38.1459,289563
38.1516,303147
38.1573,297583
38.163,292820
38.1688,278679
38.1745,243422
38.1802,219399
38.1859,190296
38.1917,159888
38.1974,139889
38.2031,118827
38.2088,98413
38.2145,82708
38.2203,73168
38.226,61574
38.2317,53238
38.2374,47939
38.2432,42365
38.2489,36762
38.2546,33586
38.2603,29626
38.266,27972
38.2718,26356
38.2775,23458
38.2832,23609
38.2889,21153
38.2947,20980
38.3004,19394
38.3061,18073
38.3118,17194
38.3175,17384
38.3233,17795
38.329,17208
38.3347,17124
38.3404,19905
38.3462,18309
38.3519,19429
38.3576,18486
38.3633,15798
38.369,16106
38.3747,12725
38.3805,12582
38.3862,11546
38.3919,11218
38.3976,10698
38.4034,10212
38.4091,8181
38.4148,10048
38.4205,9663
38.4263,8868
38.432,8695
38.4377,8651
38.4434,8151
38.4491,9432
38.4549,8295
38.4606,8155
38.4663,8811
38.472,7942
38.4778,7794
38.4835,8045
38.4892,8134
38.4949,7508
38.5006,7657
38.5064,8068
38.5121,7775
38.5178,8551
38.5235,9478
38.5293,10378
38.535,11044
38.5407,10611
38.5464,11275
38.5521,9400
38.5579,8984
38.5636,8331
38.5693,7419
38.575,6220
38.5808,7261
38.5865,8864
38.5922,8085
38.5979,8163
38.6036,7661
38.6093,9297
38.6151,8170
38.6208,7393
38.6265,6670
38.6322,6901
38.638,6217
38.6437,5884
38.6494,7004
38.6551,5502
38.6609,5069
38.6666,5683
38.6723,5855
38.678,6199
38.6838,4687
38.6895,5960
38.6952,5113
38.7009,4789
38.7066,5027
38.7124,6491
38.7181,5728
38.7238,5391
38.7295,5687
38.7353,5528
38.741,4318
38.7467,5219
38.7524,3996
38.7581,5317
38.7639,4672
38.7696,4807
38.7753,5170
38.781,5555
38.7867,4947
38.7925,5612
38.7982,5940
38.8039,5629
38.8096,5171
38.8154,5734
38.8211,5755
38.8268,5938
38.8325,5589
38.8382,5670
38.844,5042
38.8497,5060
38.8554,5008
38.8611,4232
38.8668,5728
38.8726,5211
38.8783,5552
38.884,4233
38.8897,6160
38.8955,5310
38.9012,5131
38.9069,4951
38.9126,4344
38.9184,5928
38.9241,5191
38.9298,5612
38.9355,5376
38.9412,5455
38.947,5713
38.9527,5684
38.9584,6113
38.9641,5786
38.9699,6211
38.9756,8268
38.9813,9791
38.987,10769
38.9927,12088
38.9985,13925
39.0042,10186
39.0099,8400
39.0156,8842
39.0214,7713
39.0271,7122
39.0328,6930
39.0385,6900
39.0442,8164
39.05,7434
39.0557,7947
39.0614,7778
39.0671,9782
39.0729,8865
39.0786,7877
39.0843,7504
39.09,8950
39.0957,7838
39.1015,6044
39.1072,7162
39.1129,6673
39.1186,7149
39.1243,7067
39.1301,7034
39.1358,9175
39.1415,10046
39.1472,8410
39.153,8134
39.1587,7616
39.1644,7486
39.1701,7111
39.1758,8135
39.1816,5746
39.1873,7008
39.193,7432
39.1987,6438
39.2045,6490
39.2102,6879
39.2159,6598
39.2216,8679
39.2273,8044
39.2331,8010
39.2388,8930
39.2445,7218
39.2502,7816
39.2559,6201
39.2617,6808
39.2674,7608
39.2731,6756
39.2788,6870
39.2846,6661
39.2903,7704
39.296,7622
39.3017,7729
39.3075,7121
39.3132,7981
39.3189,8211
39.3246,7940
39.3303,7873
39.3361,8173
39.3418,8314
39.3475,8229
39.3532,8533
39.359,9551
39.3647,7819
39.3704,10374
39.3761,11460
39.3818,10912
39.3876,10662
39.3933,10596
39.399,9280
39.4047,9405
39.4105,7979
39.4162,8839
39.4219,9554
39.4276,10253
39.4333,9399
39.4391,9057
39.4448,9261
39.4505,8494
39.4562,9646
39.4619,9241
39.4677,8203
39.4734,8753
39.4791,10184
39.4848,9249
39.4905,9218
39.4963,9185
39.502,9382
39.5077,9059
39.5134,8677
39.5192,9473
39.5249,9695
39.5306,9159
39.5363,8261
39.5421,9338
39.5478,9164
39.5535,10714
39.5592,10031
39.5649,9735
39.5707,11201
39.5764,9741
39.5821,11223
39.5878,10554
39.5936,9691
39.5993,10548
39.605,11028
39.6107,10742
39.6164,10392
39.6222,8831
39.6279,10799
39.6336,10296
39.6393,10898
39.6451,10819
39.6508,11444
39.6565,10573
39.6622,11643
39.6679,12415
39.6737,11677
39.6794,11779
39.6851,12194
39.6908,12876
39.6966,10836
39.7023,10504
39.708,11135
39.7137,12383
39.7194,10788
39.7251,12135
39.7309,12822
39.7366,13048
39.7423,11883
39.748,13365
39.7538,12568
39.7595,14512
39.7652,11586
39.7709,13291
39.7767,12759
39.7824,12335
39.7881,15989
39.7938,13001
39.7995,11686
39.8053,12550
39.811,13177
39.8167,15514
39.8224,13261
39.8282,13007
39.8339,15371
39.8396,13301
39.8453,13288
39.851,13298
39.8568,14549
39.8625,14694
39.8682,15288
39.8739,14935
39.8797,14661
39.8854,15722
39.8911,15662
39.8968,15551
39.9025,14182
39.9083,16209
39.914,14839
39.9197,15045
39.9254,15441
39.9312,14365
39.9369,15304
39.9426,14444
39.9483,15686
39.954,17215
39.9598,17180
39.9655,16802
39.9712,15799
39.9769,15145
39.9827,16208
39.9884,17020
39.9941,18684
39.9998,17410
40.0055,17145
40.0113,16463
40.017,15534
40.0227,16825
40.0284,17447
40.0342,17335
40.0399,18756
40.0456,17702
40.0513,17310
40.057,18643
40.0628,18338
40.0685,20588
40.0742,16454
40.0799,18031
40.0857,18856
40.0914,19287
40.0971,17607
40.1028,16637
40.1085,17797
40.1142,19703
40.12,20396
40.1257,18505
40.1314,19132
40.1371,19440
40.1429,20674
40.1486,20318
40.1543,19664
40.16,20079
40.1658,18849
40.1715,22134
40.1772,19737
40.1829,20860
40.1886,18940
40.1944,20790
40.2001,20166
40.2058,20965
40.2115,21049
40.2173,21618
40.223,22303
40.2287,21658
40.2344,21079
40.2401,22655
40.2459,22219
40.2516,21596
40.2573,21505
40.263,23938
40.2688,24346
40.2745,23502
40.2802,23085
40.2859,23821
40.2916,24263
40.2974,26004
40.3031,25590
40.3088,26041
40.3145,23697
40.3203,25235
40.326,24259
40.3317,25297
40.3374,23603
40.3431,25564
40.3488,28343
40.3546,26825
40.3603,29393
40.366,28880
40.3717,26866
40.3775,27957
40.3832,28317
40.3889,27937
40.3946,26234
40.4004,27621
40.4061,27943
40.4118,27980
40.4175,27886
40.4233,29952
40.429,29627
40.4347,30394
40.4404,28774
40.4461,29926
40.4519,29505
40.4576,30833
40.4633,28100
40.469,29535
40.4747,31578
40.4805,30656
40.4862,29334
40.4919,29962
40.4976,30195
40.5034,31492
40.5091,31431
40.5148,33572
40.5205,30620
40.5262,33343
40.532,31513
40.5377,35697
40.5434,33773
40.5491,34659
40.5549,34405
40.5606,38161
40.5663,35068
40.572,33848
40.5777,35626
40.5835,34306
40.5892,33952
40.5949,35296
40.6006,37270
40.6063,34919
40.6121,35651
40.6178,36482
40.6235,37575
40.6292,36656
40.635,40943
40.6407,39934
40.6464,42526
40.6521,39377
40.6579,39724
40.6636,39464
40.6693,41275
40.675,43286
40.6807,42297
40.6865,41925
40.6922,40112
40.6979,41720
40.7036,43007
40.7094,41636
40.7151,41683
40.7208,42060
40.7265,43958
40.7322,42096
40.738,39211
40.7437,44721
40.7494,42184
40.7551,41920
40.7609,44537
40.7666,44237
40.7723,42399
40.778,45511
40.7837,44216
40.7895,44962
40.7952,45591
40.8009,45192
40.8066,47768
40.8123,50541
40.8181,49787
40.8238,49327
40.8295,49842
40.8352,48447
40.8409,50633
40.8467,49341
40.8524,50219
40.8581,50712
40.8638,49337
40.8696,48425
40.8753,50699
40.881,50314
40.8867,53039
40.8925,50443
40.8982,50859
40.9039,53933
40.9096,54940
40.9153,53524
40.9211,53355
40.9268,55259
40.9325,55172
40.9382,52204
40.944,56577
40.9497,56317
40.9554,54044
40.9611,52753
40.9668,55181
40.9726,54947
40.9783,56035
40.984,54838
40.9897,55714
40.9955,53213
41.0012,56170
41.0069,57418
41.0126,52617
41.0183,53450
41.0241,55152
41.0298,56491
41.0355,56256
41.0412,56952
41.047,57509
41.0527,57345
41.0584,58361
41.0641,57997
41.0698,59592
41.0756,60795
41.0813,72966
41.087,76126
41.0927,74196
41.0985,73531
41.1042,74198
41.1099,69519
41.1156,75233
41.1213,75448
41.1271,78371
41.1328,80355
41.1385,87026
41.1442,93789
41.15,96383
41.1557,98394
41.1614,96405
41.1671,102139
41.1728,101288
41.1786,100132
41.1843,103660
41.19,104179
41.1957,103910
41.2014,99046
41.2072,97560
41.2129,93960
41.2186,92308
41.2243,93656
41.23,89050
41.2358,86462
41.2415,84554
41.2472,84260
41.2529,82068
41.2587,82519
41.2644,78518
41.2701,82113
41.2758,79241
41.2816,79764
41.2873,78710
41.293,80422
41.2987,79314
41.3044,78807
41.3102,77164
41.3159,78063
41.3216,80094
41.3273,77251
41.3331,78783
41.3388,80279
41.3445,79928
41.3502,77005
41.3559,81795
41.3617,79644
41.3674,81374
41.3731,82064
41.3788,81360
41.3846,79671
41.3903,84411
41.396,84798
41.4017,84238
41.4074,86167
41.4132,83818
41.4189,86130
41.4246,81660
41.4303,86404
41.4361,84133
41.4418,82530
41.4475,85608
41.4532,85414
41.4589,85751
41.4646,83570
41.4704,88268
41.4761,86686
41.4818,85732
41.4875,83887
41.4933,84826
41.499,84660
41.5047,84994
41.5104,87104
41.5162,86059
41.5219,87532
41.5276,86497
41.5333,89168
41.539,89865
41.5448,91464
41.5505,89923
41.5562,89618
41.5619,90770
41.5677,90902
41.5734,93660
41.5791,91407
41.5848,95691
41.5905,94907
41.5963,99991
41.602,102080
41.6077,103658
41.6134,107523
41.6192,118246
41.6249,125761
41.6306,144628
41.6363,151907
41.642,169629
41.6478,174826
41.6535,176598
41.6592,185217
41.6649,201386
41.6707,202920
41.6764,208925
41.6821,216053
41.6878,206474
41.6935,193287
41.6992,174691
41.705,158154
41.7107,147087
41.7164,142633
41.7221,134772
41.7279,132791
41.7336,132373
41.7393,133336
41.745,132911
41.7508,131599
41.7565,134330
41.7622,131101
41.7679,139072
41.7737,138753
41.7794,139671
41.7851,137341
41.7908,134166
41.7965,129057
41.8023,126683
41.808,128233
41.8137,125416
41.8194,126396
41.8252,128664
41.8309,122674
41.8366,121227
41.8423,122170
41.848,120363
41.8538,126838
41.8595,122982
41.8652,121208
41.8709,124536
41.8766,125724
41.8824,126421
41.8881,123559
41.8938,126251
41.8995,126482
41.9053,130911
41.911,127615
41.9167,128642
41.9224,129074
41.9281,131304
41.9339,130556
41.9396,132482
41.9453,129644
41.951,132082
41.9568,137871
41.9625,139942
41.9682,137086
41.9739,135825
41.9796,135420
41.9854,139048
41.9911,135807
41.9968,135134
42.0025,138410
42.0083,134829
42.014,137274
42.0197,143677
42.0254,137217
42.0311,138690
42.0369,144245
42.0426,142061
42.0483,140762
42.054,141768
42.0598,144141
42.0655,144820
42.0712,142233
42.0769,146443
42.0826,148397
42.0884,146126
42.0941,146924
42.0998,148654
42.1055,149686
42.1113,149124
42.117,153074
42.1227,151250
42.1284,152810
42.1341,155937
42.1399,154907
42.1456,155530
42.1513,155388
42.157,155627
42.1628,160708
42.1685,160404
42.1742,163364
42.1799,161847
42.1856,160988
42.1914,164405
42.1971,158919
42.2028,166275
42.2085,164128
42.2142,169191
42.22,181239
42.2257,205339
42.2314,213079
42.2371,204566
42.2429,191628
42.2486,183725
42.2543,181031
42.26,178067
42.2657,179957
42.2715,180017
42.2772,179918
42.2829,176701
42.2886,174681
42.2944,179562
42.3001,181012
42.3058,181155
42.3115,185121
42.3172,187698
42.323,188468
42.3287,188627
42.3344,186579
42.3401,186819
42.3458,186712
42.3516,187724
42.3573,187419
42.363,188582
42.3687,191636
42.3745,190955
42.3802,188385
42.3859,190103
42.3916,193953
42.3974,195674
42.4031,190718
42.4088,196132
42.4145,195663
42.4202,195942
42.426,196606
42.4317,195349
42.4374,198597
42.4431,203705
42.4489,201442
42.4546,204054
42.4603,203573
42.466,205839
42.4717,209356
42.4775,209463
42.4832,209287
42.4889,207016
42.4946,214594
42.5004,216146
42.5061,213502
42.5118,213883
42.5175,216594
42.5232,216132
42.529,215199
42.5347,214396
42.5404,213589
42.5461,218604
42.5518,218797
42.5576,220230
42.5633,219744
42.569,223712
42.5747,225108
42.5804,230881
42.5862,230653
42.5919,232148
42.5976,230048
42.6033,233532
42.6091,233241
42.6148,236223
42.6205,234559
42.6262,236424
42.632,233364
42.6377,233600
42.6434,230524
42.6491,231107
42.6548,234969
42.6606,239750
42.6663,237558
42.672,244616
42.6777,242637
42.6835,243114
42.6892,242469
42.6949,245915
42.7006,242978
42.7063,246633
42.7121,247869
42.7178,246218
42.7235,246986
42.7292,254596
42.735,251792
42.7407,252929
42.7464,256813
42.7521,255476
42.7578,252010
42.7636,254201
42.7693,258464
42.775,257457
42.7807,260571
42.7865,265535
42.7922,265415
42.7979,273723
42.8036,305797
42.8093,358700
42.815,375556
42.8208,347793
42.8265,311089
42.8322,299332
42.8379,287953
42.8437,290952
42.8494,289890
42.8551,298534
42.8608,291256
42.8666,294307
42.8723,299063
42.878,293338
42.8837,297176
42.8894,296761
42.8952,305214
42.9009,310876
42.9066,311281
42.9123,314866
42.9181,319833
42.9238,324489
42.9295,327995
42.9352,328748
42.9409,336132
42.9467,348207
42.9524,365067
42.9581,370999
42.9638,381226
42.9696,390932
42.9753,380780
42.981,386803
42.9867,384748
42.9924,384324
42.9982,379480
43.0039,383175
43.0096,377689
43.0153,373182
43.0211,363734
43.0268,348282
43.0325,340598
43.0382,326775
43.0439,320204
43.0497,319533
43.0554,317062
43.0611,310296
43.0668,310072
43.0726,307273
43.0783,313742
43.084,310123
43.0897,304830
43.0954,309531
43.1012,309938
43.1069,304668
43.1126,308467
43.1183,309692
43.1241,309666
43.1298,302323
43.1355,308075
43.1412,310089
43.1469,303717
43.1527,304942
43.1584,307441
43.1641,304744
43.1698,322122
43.1756,333531
43.1813,372897
43.187,402685
43.1927,407759
43.1984,387201
43.2042,356843
43.2099,342260
43.2156,337959
43.2213,322709
43.227,318198
43.2328,322678
43.2385,318780
43.2442,318020
43.2499,319132
43.2557,315040
43.2614,318163
43.2671,316844
43.2728,314244
43.2785,312173
43.2843,312040
43.29,312667
43.2957,312208
43.3014,313119
43.3072,314831
43.3129,323367
43.3186,323912
43.3243,329255
43.33,327176
43.3358,322135
43.3415,322989
43.3472,311793
43.3529,313723
43.3587,315359
43.3644,313306
43.3701,319405
43.3758,311606
43.3815,317460
43.3873,313838
43.393,310422
43.3987,318613
43.4044,315750
43.4102,315390
43.4159,309379
43.4216,316971
43.4273,315026
43.433,314870
43.4387,317522
43.4445,315274
43.4502,320131
43.4559,319474
43.4616,319523
43.4674,310111
43.4731,313087
43.4788,320371
43.4845,314229
43.4903,316449
43.496,319224
43.5017,315305
43.5074,324263
43.5132,315848
43.5189,331413
43.5246,330891
43.5303,338067
43.536,340576
43.5418,346156
43.5475,339768
43.5532,347338
43.5589,349766
43.5646,349382
43.5704,351560
43.5761,346249
43.5818,347413
43.5875,342608
43.5933,346959
43.599,338886
43.6047,341956
43.6104,339621
43.6161,341674
43.6219,340295
43.6276,340588
43.6333,341546
43.639,340696
43.6448,340847
43.6505,348902
43.6562,342324
43.6619,343937
43.6676,346876
43.6734,341151
43.6791,338709
43.6848,345076
43.6905,342823
43.6962,345658
43.702,336294
43.7077,348024
43.7134,339306
43.7191,347232
43.7249,343248
43.7306,351406
43.7363,360055
43.742,367773
43.7478,373304
43.7535,385627
43.7592,393204
43.7649,397334
43.7706,400416
43.7764,383438
43.7821,377304
43.7878,370055
43.7935,360828
43.7993,358934
43.805,349476
43.8107,350262
43.8164,343216
43.8221,334469
43.8279,337231
43.8336,331918
43.8393,336116
43.845,340281
43.8508,350387
43.8565,378387
43.8622,445231
43.8679,505318
43.8736,540563
43.8794,518689
43.8851,459369
43.8908,410494
43.8965,387856
43.9023,362590
43.908,352193
43.9137,347681
43.9194,340614
43.9251,337437
43.9309,336277
43.9366,332529
43.9423,335584
43.948,330975
43.9537,333818
43.9595,333571
43.9652,327556
43.9709,330217
43.9766,326034
43.9824,321573
43.9881,328141
43.9938,327635
43.9995,327324
44.0052,323318
44.011,325710
44.0167,319999
44.0224,324943
44.0281,322345
44.0339,326185
44.0396,327698
44.0453,322888
44.051,321643
44.0567,324942
44.0625,317952
44.0682,319632
44.0739,318836
44.0796,323835
44.0854,316750
44.0911,316395
44.0968,325346
44.1025,324799
44.1082,325738
44.114,320749
44.1197,319604
44.1254,323771
44.1311,314673
44.1369,319743
44.1426,323148
44.1483,316857
44.154,309914
44.1597,322372
44.1655,318123
44.1712,321493
44.1769,318083
44.1826,317859
44.1884,316758
44.1941,320146
44.1998,313377
44.2055,313831
44.2112,319915
44.217,319792
44.2227,316267
44.2284,319727
44.2341,315104
44.2399,316152
44.2456,320442
44.2513,322663
44.257,319326
44.2627,322813
44.2685,346933
44.2742,373327
44.2799,412268
44.2856,427332
44.2913,417487
44.2971,403645
44.3028,375224
44.3085,366518
44.3142,356225
44.3199,351675
44.3257,353803
44.3314,349175
44.3371,343476
44.3428,340200
44.3486,334525
44.3543,333864
44.36,331493
44.3657,328143
44.3715,331428
44.3772,336307
44.3829,329038
44.3886,318370
44.3943,319602
44.4001,322139
44.4058,325800
44.4115,313472
44.4172,320083
44.423,321847
44.4287,321003
44.4344,320178
44.4401,324471
44.4458,324717
44.4516,318050
44.4573,320630
44.463,322994
44.4687,324494
44.4745,325724
44.4802,329515
44.4859,335261
44.4916,329539
44.4973,330579
44.5031,328602
44.5088,328008
44.5145,321626
44.5202,317203
44.526,321324
44.5317,321534
44.5374,321559
44.5431,318096
44.5488,313481
44.5545,316777
44.5603,319480
44.566,315355
44.5717,312563
44.5774,316242
44.5832,313814
44.5889,316499
44.5946,317529
44.6003,316738
44.6061,315597
44.6118,318268
44.6175,311956
44.6232,306969
44.6289,311030
44.6347,311936
44.6404,315695
44.6461,318691
44.6518,314823
44.6576,310111
44.6633,311852
44.669,315555
44.6747,317014
44.6804,311349
44.6862,314368
44.6919,313216
44.6976,311203
44.7033,310415
44.7091,315461
44.7148,312981
44.7205,314672
44.7262,317142
44.7319,308080
44.7377,313280
44.7434,313664
44.7491,315371
44.7548,314651
44.7606,312688
44.7663,313950
44.772,313937
44.7777,307392
44.7834,306418
44.7891,315125
44.7949,314355
44.8006,315679
44.8063,315010
44.812,317658
44.8178,309936
44.8235,314582
44.8292,311587
44.8349,315657
44.8407,312994
44.8464,316760
44.8521,314985
44.8578,314857
44.8636,315754
44.8693,316124
44.875,307824
44.8807,313083
44.8864,310255
44.8922,315744
44.8979,307845
44.9036,315230
44.9093,311147
44.9151,310895
44.9208,316052
44.9265,312966
44.9322,315911
44.9379,308709
44.9437,315371
44.9494,315721
44.9551,315872
44.9608,317151
44.9665,313264
44.9723,313990
44.978,316321
44.9837,314534
44.9894,315770
44.9952,322711
