D:\MassHunter\GCMS\1\data\Stachys_bullata\examples\Zuma_104.D 16 Mar 20  02:52 pm
Start of data points
3.09245,20213
3.09817,18539
3.1039,20452
3.10962,20154
3.11533,18795
3.12107,21082
3.12678,20827
3.1325,22188
3.13823,19374
3.14395,20379
3.14967,20440
3.1554,18984
3.16112,18300
3.16683,19634
3.17257,18138
3.17828,19623
3.184,16155
3.18973,14175
3.19545,12902
3.20117,12691
3.2069,12906
3.21262,12691
3.21833,12907
3.22407,10159
3.22978,11059
3.2355,12244
3.24123,11096
3.24695,11169
3.25267,11182
3.2584,10874
3.26412,10787
3.26983,10379
3.27555,10973
3.28128,10721
3.287,9129
3.29272,9667
3.29845,9368
3.30417,9530
3.30988,8998
3.31562,9135
3.32133,9022
3.32705,7832
3.33278,8721
3.3385,7982
3.34422,7789
3.34995,6531
3.35567,7213
3.36138,7085
3.36712,6915
3.37283,6063
3.37855,6982
3.38428,6538
3.39,5507
3.39572,6191
3.40145,6171
3.40717,4493
3.41288,5937
3.41862,6038
3.42433,5737
3.43005,5811
3.43578,5579
3.4415,6056
3.44722,6093
3.45293,5260
3.45867,5492
3.46438,4785
3.4701,5142
3.47583,5849
3.48155,5532
3.48727,5548
3.493,5131
3.49872,5082
3.50443,4149
3.51017,4968
3.51588,5369
3.5216,5230
3.52733,4897
3.53305,5794
3.53877,5468
3.5445,3405
3.55022,5004
3.55593,5501
3.56167,5634
3.56738,5674
3.5731,4192
3.57883,4690
3.58455,4770
3.59027,4831
3.596,4358
3.60172,4976
3.60743,4530
3.61315,5364
3.61888,4429
3.6246,4182
3.63032,3948
3.63605,5106
3.64177,4635
3.64748,3876
3.65322,4282
3.65893,4066
3.66465,3525
3.67038,3718
3.6761,4145
3.68182,4282
3.68755,4413
3.69327,4106
3.69898,3350
3.70472,3331
3.71043,4317
3.71615,4001
3.72188,4499
3.7276,3416
3.73332,3088
3.73905,3977
3.74477,3888
3.75048,4548
3.75622,4605
3.76193,4711
3.76765,4154
3.77338,3171
3.7791,3251
3.78482,2828
3.79053,2643
3.79627,2866
3.80198,2555
3.8077,2585
3.81343,2722
3.81915,2451
3.82487,2839
3.8306,3057
3.83632,3770
3.84203,2807
3.84777,3397
3.85348,3813
3.8592,4080
3.86493,3703
3.87065,3698
3.87637,3080
3.8821,4105
3.88782,2899
3.89353,4650
3.89927,3359
3.90498,3240
3.9107,3082
3.91643,3970
3.92215,3511
3.92787,3614
3.9336,3532
3.93932,3019
3.94503,3894
3.95077,3862
3.95648,3204
3.9622,2969
3.96792,4460
3.97365,5564
3.97937,10314
3.98508,13429
3.99082,17036
3.99653,20201
4.00225,12057
4.00798,10697
4.0137,9604
4.01942,7975
4.02515,5580
4.03087,5425
4.03658,5078
4.04232,4911
4.04803,4327
4.05375,3835
4.05948,3896
4.0652,3105
4.07092,3577
4.07665,2830
4.08237,3643
4.08808,3396
4.09382,2847
4.09953,2465
4.10525,3229
4.11098,2550
4.1167,2590
4.12242,2111
4.12815,2700
4.13387,2760
4.13958,2718
4.1453,2030
4.15103,2675
4.15675,3116
4.16247,2429
4.1682,2541
4.17392,2635
4.17963,3060
4.18537,3353
4.19108,2970
4.1968,2868
4.20253,3003
4.20825,3129
4.21397,3437
4.2197,2932
4.22542,3297
4.23113,2926
4.23687,3185
4.24258,3025
4.2483,3085
4.25403,3341
4.25975,3123
4.26547,2654
4.2712,2619
4.27692,2636
4.28263,2738
4.28837,2947
4.29408,2532
4.2998,3330
4.30552,2645
4.31125,2816
4.31697,3027
4.32268,3073
4.32842,3322
4.33413,2585
4.33985,2931
4.34558,2500
4.3513,2933
4.35702,3092
4.36275,2836
4.36847,3018
4.37418,2748
4.37992,3108
4.38563,3027
4.39135,3057
4.39708,3330
4.4028,2638
4.40852,2288
4.41425,2885
4.41997,2778
4.42568,2509
4.43142,2920
4.43713,2911
4.44285,2668
4.44858,2878
4.4543,1836
4.46002,3055
4.46575,2725
4.47147,3191
4.47718,3431
4.4829,3083
4.48863,3148
4.49435,2739
4.50007,2451
4.5058,3201
4.51152,3071
4.51723,2598
4.52297,2982
4.52868,2731
4.5344,3556
4.54013,2689
4.54585,3144
4.55157,3244
4.5573,2929
4.56302,2839
4.56873,3011
4.57447,3175
4.58018,3328
4.5859,3950
4.59163,3781
4.59735,2685
4.60307,2986
4.6088,2994
4.61452,2980
4.62023,2937
4.62597,2590
4.63168,2487
4.6374,1633
4.64312,2184
4.64885,1973
4.65457,1940
4.66028,2037
4.66602,1944
4.67173,1774
4.67745,1853
4.68318,1649
4.6889,1875
4.69462,1733
4.70035,2013
4.70607,1936
4.71178,1986
4.71752,2121
4.72323,2150
4.72895,2258
4.73468,1741
4.7404,2274
4.74612,1704
4.75185,2027
4.75757,2139
4.76328,2665
4.76902,2198
4.77473,2185
4.78045,2484
4.78618,2765
4.7919,1954
4.79762,2861
4.80335,2525
4.80907,2820
4.81478,2475
4.8205,2697
4.82623,2151
4.83195,2701
4.83767,1888
4.8434,2171
4.84912,2171
4.85483,2372
4.86057,2307
4.86628,2161
4.872,2236
4.87773,2297
4.88345,2322
4.88917,2586
4.8949,1922
4.90062,2643
4.90633,3077
4.91207,2239
4.91778,2239
4.9235,1894
4.92923,2049
4.93495,2146
4.94067,1856
4.9464,2022
4.95212,2228
4.95783,2079
4.96357,3259
4.96928,3140
4.975,4172
4.98073,4797
4.98645,3833
4.99217,3287
4.99788,3504
5.00362,3261
5.00933,2771
5.01505,2423
5.02078,2431
5.0265,2546
5.03222,2298
5.03795,2378
5.04367,1997
5.04938,1966
5.05512,1556
5.06083,1268
5.06655,1708
5.07228,1167
5.078,1702
5.08372,1620
5.08945,1697
5.09517,1568
5.10088,1648
5.10662,1890
5.11233,1462
5.11805,1730
5.12378,1468
5.1295,1315
5.13522,1539
5.14095,1561
5.14667,1590
5.15238,1570
5.15812,1525
5.16383,1446
5.16955,1577
5.17527,1622
5.181,1621
5.18672,1683
5.19243,1572
5.19817,1357
5.20388,1593
5.2096,1601
5.21533,2076
5.22105,1790
5.22677,1769
5.2325,1911
5.23822,1945
5.24393,2375
5.24967,1679
5.25538,1882
5.2611,2042
5.26683,2677
5.27255,2918
5.27827,2310
5.284,2307
5.28972,2645
5.29543,2670
5.30117,2659
5.30688,2464
5.3126,1838
5.31833,2173
5.32405,2413
5.32977,2025
5.3355,2449
5.34122,2439
5.34693,2979
5.35265,1813
5.35838,1969
5.3641,2060
5.36982,2513
5.37555,1897
5.38127,1659
5.38698,2074
5.39272,2094
5.39843,2223
5.40415,2358
5.40988,1838
5.4156,1884
5.42132,1839
5.42705,1919
5.43277,1930
5.43848,1784
5.44422,1856
5.44993,2145
5.45565,2191
5.46138,2087
5.4671,2047
5.47282,2109
5.47855,1794
5.48427,2088
5.48998,1980
5.49572,2205
5.50143,1463
5.50715,1786
5.51287,1461
5.5186,1905
5.52432,2069
5.53003,2105
5.53577,1911
5.54148,1676
5.5472,2308
5.55293,1835
5.55865,1683
5.56437,1810
5.5701,1827
5.57582,1919
5.58153,2353
5.58727,1636
5.59298,2083
5.5987,2061
5.60443,2166
5.61015,1501
5.61587,1443
5.6216,1476
5.62732,1425
5.63303,1215
5.63877,1044
5.64448,1312
5.6502,1657
5.65593,1589
5.66165,2025
5.66737,1665
5.6731,1869
5.67882,2021
5.68453,1643
5.69025,1871
5.69598,1788
5.7017,1796
5.70742,1798
5.71315,1865
5.71887,1907
5.72458,1732
5.73032,1554
5.73603,1563
5.74175,1299
5.74748,1937
5.7532,1687
5.75892,1805
5.76465,2002
5.77037,1750
5.77608,1890
5.78182,2064
5.78753,1746
5.79325,1794
5.79898,1535
5.8047,1948
5.81042,1678
5.81615,1578
5.82187,2090
5.82758,2191
5.83332,1673
5.83903,1836
5.84475,1762
5.85047,2048
5.8562,1374
5.86192,1120
5.86763,1110
5.87337,1316
5.87908,1630
5.8848,1801
5.89053,1975
5.89625,1496
5.90197,1777
5.9077,1833
5.91342,1495
5.91913,1706
5.92487,2146
5.93058,1725
5.9363,1462
5.94203,2118
5.94775,1800
5.95347,1846
5.9592,1598
5.96492,1836
5.97063,1408
5.97637,2142
5.98208,2142
5.9878,1780
5.99353,1948
5.99925,1634
6.00497,2155
6.0107,2099
6.01642,1370
6.02213,1694
6.02785,1435
6.03358,1398
6.0393,1351
6.04502,1329
6.05075,1177
6.05647,1320
6.06218,1582
6.06792,1557
6.07363,1682
6.07935,1673
6.08508,1599
6.0908,1441
6.09652,1358
6.10225,1360
6.10797,1377
6.11368,1466
6.11942,1284
6.12513,1919
6.13085,1455
6.13658,1494
6.1423,1448
6.14802,2088
6.15375,1759
6.15947,1544
6.16518,1499
6.17092,1684
6.17663,1365
6.18235,1796
6.18808,1575
6.1938,1113
6.19952,1269
6.20523,981
6.21097,1066
6.21668,1346
6.2224,1065
6.22813,943
6.23385,1315
6.23957,1178
6.2453,1402
6.25102,1060
6.25673,1540
6.26247,1664
6.26818,1515
6.2739,1334
6.27963,1482
6.28535,1516
6.29107,1214
6.2968,1042
6.30252,1468
6.30823,1512
6.31397,1468
6.31968,1405
6.3254,1583
6.33113,1548
6.33685,1723
6.34257,1473
6.3483,1598
6.35402,2085
6.35973,2356
6.36547,2279
6.37118,2316
6.3769,2528
6.38262,1572
6.38835,1474
6.39407,1355
6.39978,1477
6.40552,1495
6.41123,1545
6.41695,1493
6.42268,2316
6.4284,1748
6.43412,1338
6.43985,1574
6.44557,1223
6.45128,1214
6.45702,1350
6.46273,1131
6.46845,1504
6.47418,1561
6.4799,2093
6.48562,1457
6.49135,1792
6.49707,1346
6.50278,1839
6.50852,1809
6.51423,1425
6.51995,1334
6.52568,1159
6.5314,1219
6.53712,1530
6.54283,1287
6.54857,1316
6.55428,1406
6.56,1552
6.56573,1654
6.57145,1519
6.57717,1569
6.5829,1496
6.58862,1735
6.59433,1340
6.60007,1587
6.60578,1338
6.6115,1240
6.61723,1176
6.62295,1351
6.62867,1419
6.6344,1359
6.64012,1280
6.64583,1507
6.65157,1586
6.65728,1558
6.663,1257
6.66873,911
6.67445,1595
6.68017,1747
6.6859,1416
6.69162,1524
6.69733,1487
6.70307,1256
6.70878,1475
6.7145,1400
6.72022,1413
6.72595,1657
6.73167,1567
6.73738,972
6.74312,1002
6.74883,718
6.75455,835
6.76028,894
6.766,863
6.77172,560
6.77745,694
6.78317,1009
6.78888,1027
6.79462,1056
6.80033,711
6.80605,622
6.81178,966
6.8175,1207
6.82322,1344
6.82895,1324
6.83467,1230
6.84038,1388
6.84612,1265
6.85183,1653
6.85755,1505
6.86328,1431
6.869,1163
6.87472,1307
6.88045,1544
6.88617,1304
6.89188,1358
6.8976,1623
6.90333,875
6.90905,1345
6.91477,1256
6.9205,1556
6.92622,1587
6.93193,1579
6.93767,1832
6.94338,1188
6.9491,1076
6.95483,1173
6.96055,1695
6.96627,989
6.972,1086
6.97772,1148
6.98343,1355
6.98917,903
6.99488,1076
7.0006,1453
7.00633,1238
7.01205,1321
7.01777,1494
7.0235,1192
7.02922,1369
7.03493,1659
7.04067,1295
7.04638,1002
7.0521,1134
7.05782,1316
7.06355,1067
7.06927,983
7.07498,969
7.08072,1096
7.08643,993
7.09215,1101
7.09788,1006
7.1036,441
7.10932,891
7.11505,993
7.12077,719
7.12648,1086
7.13222,849
7.13793,1107
7.14365,846
7.14938,805
7.1551,826
7.16082,424
7.16655,764
7.17227,633
7.17798,1008
7.18372,867
7.18943,688
7.19515,857
7.20088,1025
7.2066,609
7.21232,861
7.21805,636
7.22377,1143
7.22948,1204
7.2352,596
7.24093,822
7.24665,801
7.25237,896
7.2581,674
7.26382,1166
7.26953,863
7.27527,1147
7.28098,594
7.2867,801
7.29243,941
7.29815,944
7.30387,699
7.3096,959
7.31532,922
7.32103,987
7.32677,633
7.33248,527
7.3382,665
7.34393,844
7.34965,628
7.35537,585
7.3611,514
7.36682,610
7.37253,784
7.37827,542
7.38398,658
7.3897,658
7.39543,664
7.40115,834
7.40687,940
7.41258,722
7.41832,783
7.42403,878
7.42975,701
7.43548,691
7.4412,729
7.44692,655
7.45265,913
7.45837,1185
7.46408,836
7.46982,640
7.47553,843
7.48125,554
7.48698,528
7.4927,751
7.49842,239
7.50415,698
7.50987,615
7.51558,822
7.52132,612
7.52703,473
7.53275,693
7.53848,753
7.5442,928
7.54992,1140
7.55565,1234
7.56137,832
7.56708,950
7.5728,716
7.57853,558
7.58425,623
7.58997,818
7.5957,921
7.60142,879
7.60713,854
7.61287,537
7.61858,957
7.6243,633
7.63003,807
7.63575,759
7.64147,726
7.6472,577
7.65292,1066
7.65863,900
7.66437,860
7.67008,729
7.6758,897
7.68153,860
7.68725,936
7.69297,530
7.6987,692
7.70442,742
7.71013,509
7.71587,554
7.72158,823
7.7273,475
7.73303,934
7.73875,562
7.74447,799
7.75018,579
7.75592,462
7.76163,599
7.76735,557
7.77308,777
7.7788,466
7.78452,753
7.79025,920
7.79597,648
7.80168,683
7.80742,292
7.81313,635
7.81885,442
7.82458,1059
7.8303,758
7.83602,831
7.84175,422
7.84747,674
7.85318,899
7.85892,695
7.86463,172
7.87035,834
7.87608,696
7.8818,617
7.88752,939
7.89325,456
7.89897,906
7.90468,451
7.91042,598
7.91613,355
7.92185,847
7.92757,507
7.9333,689
7.93902,724
7.94473,1000
7.95047,703
7.95618,825
7.9619,928
7.96763,780
7.97335,494
7.97907,732
7.9848,727
7.99052,1134
7.99623,1212
8.00197,708
8.00768,602
8.0134,795
8.01913,824
8.02485,759
8.03057,525
8.0363,594
8.04202,605
8.04773,548
8.05347,612
8.05918,758
8.0649,619
8.07063,608
8.07635,636
8.08207,1112
8.08778,635
8.09352,478
8.09923,533
8.10495,501
8.11068,743
8.1164,584
8.12212,503
8.12785,864
8.13357,1006
8.13928,709
8.14502,763
8.15073,768
8.15645,549
8.16218,665
8.1679,733
8.17362,547
8.17935,528
8.18507,800
8.19078,749
8.19652,1023
8.20223,707
8.20795,1002
8.21368,967
8.2194,707
8.22512,488
8.23085,712
8.23657,1060
8.24228,510
8.24802,942
8.25373,857
8.25945,565
8.26517,454
8.2709,421
8.27662,576
8.28233,741
8.28807,799
8.29378,600
8.2995,739
8.30523,439
8.31095,291
8.31667,600
8.3224,783
8.32812,804
8.33383,672
8.33957,670
8.34528,446
8.351,469
8.35673,765
8.36245,460
8.36817,822
8.3739,492
8.37962,619
8.38533,728
8.39107,851
8.39678,549
8.4025,752
8.40823,310
8.41395,431
8.41967,565
8.4254,582
8.43112,866
8.43683,379
8.44255,719
8.44828,610
8.454,1299
8.45972,1959
8.46545,6474
8.47117,12574
8.47688,27206
8.48262,46096
8.48833,71678
8.49405,91754
8.49978,102948
8.5055,102539
8.51122,89506
8.51695,73876
8.52267,53589
8.52838,37713
8.53412,25349
8.53983,15066
8.54555,9296
8.55128,5627
8.557,3885
8.56272,2145
8.56845,1178
8.57417,1482
8.57988,1074
8.58562,334
8.59133,552
8.59705,879
8.60278,623
8.6085,489
8.61422,268
8.61993,610
8.62567,557
8.63138,982
8.6371,2264
8.64283,5431
8.64855,14411
8.65427,33846
8.66,69766
8.66572,124842
8.67143,189838
8.67717,279573
8.68288,315598
8.6886,310081
8.69433,291959
8.70005,236136
8.70577,183113
8.7115,130552
8.71722,90098
8.72293,59476
8.72867,39506
8.73438,24437
8.7401,15574
8.74583,10442
8.75155,5246
8.75727,4176
8.763,2573
8.76872,2190
8.77443,1330
8.78015,762
8.78588,1127
8.7916,762
8.79732,1163
8.80305,915
8.80877,540
8.81448,1039
8.82022,722
8.82593,566
8.83165,734
8.83738,1167
8.8431,852
8.84882,853
8.85455,1008
8.86027,598
8.86598,730
8.87172,951
8.87743,1349
8.88315,1022
8.88888,599
8.8946,894
8.90032,892
8.90605,686
8.91177,849
8.91748,894
8.92322,789
8.92893,689
8.93465,516
8.94038,640
8.9461,690
8.95182,1029
8.95753,660
8.96327,632
8.96898,549
8.9747,1020
8.98043,789
8.98615,672
8.99187,1011
8.9976,915
9.00332,977
9.00903,955
9.01477,987
9.02048,1261
9.0262,1129
9.03193,1605
9.03765,1174
9.04337,1145
9.0491,1160
9.05482,1712
9.06053,2037
9.06627,1487
9.07198,1335
9.0777,1310
9.08343,1492
9.08915,1319
9.09487,1317
9.1006,1190
9.10632,1887
9.11203,1444
9.11777,1891
9.12348,2204
9.1292,3075
9.13492,3479
9.14065,4233
9.14637,4537
9.15208,4388
9.15782,4672
9.16353,3304
9.16925,3478
9.17498,2332
9.1807,1909
9.18642,1194
9.19215,1720
9.19787,1211
9.20358,1459
9.20932,1060
9.21503,1144
9.22075,1181
9.22648,1126
9.2322,1318
9.23792,1034
9.24365,1240
9.24937,1281
9.25508,1354
9.26082,1981
9.26653,1629
9.27225,1206
9.27798,1399
9.2837,1185
9.28942,1197
9.29513,1294
9.30087,1231
9.30658,1464
9.3123,700
9.31803,1023
9.32375,1339
9.32947,1101
9.3352,1034
9.34092,1387
9.34663,1108
9.35237,1050
9.35808,1634
9.3638,1192
9.36953,1115
9.37525,949
9.38097,1172
9.3867,838
9.39242,1007
9.39813,1292
9.40387,1004
9.40958,1439
9.4153,1552
9.42103,1795
9.42675,1011
9.43247,1178
9.4382,1120
9.44392,1260
9.44963,677
9.45537,1140
9.46108,1136
9.4668,1061
9.47252,1579
9.47825,1041
9.48397,1081
9.48968,1360
9.49542,942
9.50113,1457
9.50685,1581
9.51258,2104
9.5183,3870
9.52402,8577
9.52975,11831
9.53547,15459
9.54118,18101
9.54692,19100
9.55263,16560
9.55835,12262
9.56408,9705
9.5698,7707
9.57552,5345
9.58125,3790
9.58697,3931
9.59268,2516
9.59842,2386
9.60413,2442
9.60985,1635
9.61558,1741
9.6213,1182
9.62702,1641
9.63275,1090
9.63847,1339
9.64418,1539
9.6499,1169
9.65563,1399
9.66135,970
9.66707,998
9.6728,1418
9.67852,992
9.68423,1463
9.68997,1078
9.69568,1055
9.7014,1374
9.70713,1079
9.71285,903
9.71857,1031
9.7243,1128
9.73002,1162
9.73573,1161
9.74147,1025
9.74718,853
9.7529,1166
9.75863,1443
9.76435,1427
9.77007,939
9.7758,817
9.78152,1199
9.78723,1094
9.79297,1461
9.79868,988
9.8044,1309
9.81012,1100
9.81585,873
9.82157,927
9.82728,1166
9.83302,924
9.83873,1180
9.84445,1171
9.85018,1342
9.8559,1650
9.86162,2970
9.86735,4170
9.87307,3850
9.87878,4372
9.88452,5011
9.89023,4126
9.89595,3125
9.90168,2820
9.9074,2111
9.91312,1548
9.91885,935
9.92457,1152
9.93028,1121
9.93602,763
9.94173,1376
9.94745,2071
9.95318,3309
9.9589,6456
9.96462,11965
9.97035,21194
9.97607,29824
9.98178,40364
9.9875,48216
9.99323,45998
9.99895,43027
10.0047,35759
10.0104,31042
10.0161,42916
10.0218,75389
10.0276,146959
10.0333,263168
10.039,407243
10.0447,543911
10.0505,618474
10.0562,642069
10.0619,588214
10.0676,478403
10.0733,352909
10.0791,242199
10.0848,161383
10.0905,98625
10.0962,59677
10.102,33534
10.1077,18727
10.1134,11149
10.1191,6531
10.1248,4068
10.1306,2380
10.1363,1576
10.142,1674
10.1477,863
10.1535,1721
10.1592,1547
10.1649,794
10.1706,1318
10.1763,1188
10.1821,621
10.1878,611
10.1935,1272
10.1992,1265
10.205,1634
10.2107,1660
10.2164,3050
10.2221,7965
10.2278,10632
10.2336,14710
10.2393,15187
10.245,15619
10.2507,13813
10.2565,10944
10.2622,8819
10.2679,5112
10.2736,2630
10.2793,2042
10.2851,1721
10.2908,940
10.2965,1495
10.3022,876
10.308,1110
10.3137,1305
10.3194,1313
10.3251,655
10.3308,1386
10.3366,1201
10.3423,1476
10.348,1838
10.3537,1224
10.3594,1486
10.3652,1830
10.3709,1507
10.3766,1277
10.3823,2608
10.3881,1418
10.3938,1701
10.3995,1519
10.4052,1441
10.4109,1670
10.4167,1616
10.4224,1753
10.4281,1558
10.4338,1642
10.4396,1427
10.4453,1326
10.451,1460
10.4567,1466
10.4624,1184
10.4682,2264
10.4739,3827
10.4796,8417
10.4853,14429
10.4911,19415
10.4968,19347
10.5025,18387
10.5082,15679
10.5139,12043
10.5197,8364
10.5254,6849
10.5311,5467
10.5368,4386
10.5426,3008
10.5483,2755
10.554,2989
10.5597,2220
10.5654,4225
10.5712,10455
10.5769,23921
10.5826,53266
10.5883,112685
10.5941,192214
10.5998,293512
10.6055,366809
10.6112,406343
10.6169,399320
10.6227,324577
10.6284,241970
10.6341,151587
10.6398,87883
10.6456,46105
10.6513,22542
10.657,11967
10.6627,8098
10.6684,6521
10.6742,6999
10.6799,6111
10.6856,5581
10.6913,3845
10.697,3487
10.7028,2657
10.7085,2215
10.7142,2197
10.7199,2139
10.7257,2601
10.7314,5245
10.7371,8561
10.7428,13907
10.7485,19498
10.7543,22374
10.76,23662
10.7657,19764
10.7714,16821
10.7772,14012
10.7829,8513
10.7886,6025
10.7943,4355
10.8,3203
10.8058,2802
10.8115,2205
10.8172,1322
10.8229,1532
10.8287,1801
10.8344,1614
10.8401,1204
10.8458,1187
10.8515,1392
10.8573,1108
10.863,2026
10.8687,1236
10.8744,959
10.8802,729
10.8859,1150
10.8916,1746
10.8973,973
10.903,1086
10.9088,1542
10.9145,1127
10.9202,920
10.9259,1396
10.9317,2352
10.9374,4419
10.9431,7963
10.9488,17833
10.9545,34722
10.9603,58315
10.966,85810
10.9717,110784
10.9774,121189
10.9832,119635
10.9889,103450
10.9946,78868
11.0003,55493
11.006,32720
11.0118,19616
11.0175,10963
11.0232,5254
11.0289,3927
11.0346,2823
11.0404,1888
11.0461,2273
11.0518,1611
11.0575,2327
11.0633,1641
11.069,1222
11.0747,904
11.0804,758
11.0861,1101
11.0919,1281
11.0976,950
11.1033,1942
11.109,2565
11.1148,7737
11.1205,25461
11.1262,62141
11.1319,149164
11.1376,291416
11.1434,495428
11.1491,728055
11.1548,922223
11.1605,1037606
11.1663,1019835
11.172,886191
11.1777,675156
11.1834,464748
11.1891,303476
11.1949,184421
11.2006,121693
11.2063,83810
11.212,60949
11.2178,43683
11.2235,29740
11.2292,19025
11.2349,11509
11.2406,6189
11.2464,3640
11.2521,2089
11.2578,1716
11.2635,1293
11.2693,1760
11.275,2234
11.2807,2307
11.2864,1310
11.2921,1368
11.2979,998
11.3036,1501
11.3093,1224
11.315,585
11.3208,926
11.3265,1167
11.3322,690
11.3379,934
11.3436,2074
11.3494,1414
11.3551,2925
11.3608,5030
11.3665,9672
11.3722,12936
11.378,14047
11.3837,15769
11.3894,15306
11.3951,12459
11.4009,9133
11.4066,6072
11.4123,4029
11.418,2187
11.4237,1605
11.4295,1070
11.4352,931
11.4409,1038
11.4466,956
11.4524,812
11.4581,1488
11.4638,802
11.4695,700
11.4752,1461
11.481,1013
11.4867,982
11.4924,1517
11.4981,1826
11.5039,1613
11.5096,820
11.5153,1079
11.521,1992
11.5267,3410
11.5325,8961
11.5382,18914
11.5439,35141
11.5496,56263
11.5554,75402
11.5611,90934
11.5668,87806
11.5725,79403
11.5782,63619
11.584,43200
11.5897,26689
11.5954,16853
11.6011,15106
11.6069,23638
11.6126,48902
11.6183,85048
11.624,127529
11.6297,173917
11.6355,215214
11.6412,209874
11.6469,182274
11.6526,139205
11.6584,94930
11.6641,59518
11.6698,33307
11.6755,17552
11.6812,9924
11.687,5691
11.6927,4029
11.6984,3745
11.7041,2979
11.7098,2992
11.7156,3390
11.7213,5714
11.727,15661
11.7327,35401
11.7385,74917
11.7442,146781
11.7499,240451
11.7556,344247
11.7613,416496
11.7671,432330
11.7728,396565
11.7785,327763
11.7842,237572
11.79,150380
11.7957,88064
11.8014,46072
11.8071,23514
11.8128,12658
11.8186,6807
11.8243,3253
11.83,2177
11.8357,1794
11.8415,1616
11.8472,1028
11.8529,1700
11.8586,993
11.8643,1256
11.8701,1444
11.8758,1875
11.8815,1464
11.8872,1918
11.893,1873
11.8987,3339
11.9044,5749
11.9101,10861
11.9158,18985
11.9216,31347
11.9273,36759
11.933,41687
11.9387,43235
11.9445,37252
11.9502,29448
11.9559,19723
11.9616,13521
11.9673,10013
11.9731,7183
11.9788,4688
11.9845,3602
11.9902,2313
11.996,2058
12.0017,2311
12.0074,1560
12.0131,1784
12.0188,1860
12.0246,1958
12.0303,1204
12.036,1135
12.0417,1464
12.0474,1287
12.0532,1357
12.0589,1116
12.0646,1380
12.0703,1752
12.0761,1567
12.0818,2504
12.0875,4952
12.0932,15405
12.0989,30272
12.1047,53898
12.1104,87436
12.1161,126766
12.1218,153887
12.1276,155843
12.1333,136321
12.139,99810
12.1447,65589
12.1504,37887
12.1562,19204
12.1619,10766
12.1676,5158
12.1733,2953
12.1791,1725
12.1848,1350
12.1905,1590
12.1962,1320
12.2019,1970
12.2077,3476
12.2134,6591
12.2191,11899
12.2248,18486
12.2306,26290
12.2363,30983
12.242,31437
12.2477,28695
12.2534,22720
12.2592,17642
12.2649,12414
12.2706,7388
12.2763,4557
12.2821,3167
12.2878,2083
12.2935,1274
12.2992,1132
12.3049,1093
12.3107,1042
12.3164,953
12.3221,1012
12.3278,1193
12.3336,501
12.3393,1276
12.345,1259
12.3507,744
12.3564,1175
12.3622,1234
12.3679,1139
12.3736,678
12.3793,1211
12.3851,927
12.3908,657
12.3965,354
12.4022,1257
12.4079,1439
12.4137,1809
12.4194,4210
12.4251,5692
12.4308,9179
12.4365,14105
12.4423,16973
12.448,17692
12.4537,17671
12.4594,14260
12.4652,10263
12.4709,7432
12.4766,2969
12.4823,2000
12.488,905
12.4938,893
12.4995,846
12.5052,553
12.5109,991
12.5167,804
12.5224,705
12.5281,609
12.5338,979
12.5395,946
12.5453,979
12.551,897
12.5567,675
12.5624,1223
12.5682,493
12.5739,756
12.5796,663
12.5853,1349
12.591,1107
12.5968,1377
12.6025,973
12.6082,1056
12.6139,1040
12.6197,891
12.6254,765
12.6311,825
12.6368,1018
12.6425,1732
12.6483,3135
12.654,7170
12.6597,12574
12.6654,18561
12.6712,23530
12.6769,30398
12.6826,28933
12.6883,24529
12.694,18359
12.6998,12146
12.7055,8995
12.7112,9210
12.7169,15053
12.7227,27813
12.7284,47961
12.7341,71810
12.7398,93197
12.7455,105664
12.7513,107579
12.757,91007
12.7627,68852
12.7684,44982
12.7741,27267
12.7799,13813
12.7856,6073
12.7913,3390
12.797,1424
12.8028,1145
12.8085,624
12.8142,494
12.8199,515
12.8256,1010
12.8314,926
12.8371,637
12.8428,781
12.8485,1088
12.8543,878
12.86,643
12.8657,532
12.8714,836
12.8771,590
12.8829,826
12.8886,681
12.8943,998
12.9,681
12.9058,1589
12.9115,2114
12.9172,1642
12.9229,890
12.9286,1046
12.9344,1242
12.9401,1115
12.9458,848
12.9515,622
12.9573,1457
12.963,3943
12.9687,8318
12.9744,13740
12.9801,20699
12.9859,25441
12.9916,31065
12.9973,30005
13.003,28058
13.0088,19458
13.0145,13207
13.0202,9094
13.0259,4376
13.0316,3242
13.0374,1468
13.0431,683
13.0488,525
13.0545,884
13.0603,1502
13.066,1214
13.0717,626
13.0774,1278
13.0831,1667
13.0889,1848
13.0946,2490
13.1003,3299
13.106,3891
13.1117,3926
13.1175,3872
13.1232,3625
13.1289,3304
13.1346,3058
13.1404,2039
13.1461,2142
13.1518,2491
13.1575,2563
13.1632,4323
13.169,6271
13.1747,6295
13.1804,8348
13.1861,8885
13.1919,9224
13.1976,8077
13.2033,5138
13.209,3912
13.2147,2295
13.2205,549
13.2262,898
13.2319,1142
13.2376,1003
13.2434,820
13.2491,822
13.2548,776
13.2605,278
13.2662,381
13.272,323
13.2777,937
13.2834,1179
13.2891,466
13.2949,868
13.3006,883
13.3063,661
13.312,717
13.3177,783
13.3235,538
13.3292,907
13.3349,1010
13.3406,712
13.3464,486
13.3521,1032
13.3578,1054
13.3635,761
13.3692,449
13.375,1022
13.3807,1063
13.3864,272
13.3921,861
13.3979,896
13.4036,1042
13.4093,801
13.415,478
13.4207,205
13.4265,743
13.4322,1111
13.4379,1168
13.4436,1016
13.4493,652
13.4551,1356
13.4608,1016
13.4665,904
13.4722,637
13.478,570
13.4837,677
13.4894,820
13.4951,731
13.5008,400
13.5066,472
13.5123,994
13.518,516
13.5237,818
13.5295,348
13.5352,906
13.5409,828
13.5466,688
13.5523,597
13.5581,1131
13.5638,624
13.5695,544
13.5752,1218
13.581,2406
13.5867,3104
13.5924,5157
13.5981,8445
13.6038,11143
13.6096,11674
13.6153,12253
13.621,11436
13.6267,9157
13.6325,6305
13.6382,4628
13.6439,5620
13.6496,7572
13.6553,13340
13.6611,19845
13.6668,26658
13.6725,32554
13.6782,32633
13.684,31132
13.6897,24045
13.6954,18916
13.7011,11988
13.7068,6395
13.7126,5045
13.7183,2183
13.724,1434
13.7297,1250
13.7355,596
13.7412,646
13.7469,592
13.7526,940
13.7583,547
13.7641,394
13.7698,1098
13.7755,642
13.7812,1072
13.7869,745
13.7927,568
13.7984,532
13.8041,412
13.8098,666
13.8156,583
13.8213,517
13.827,524
13.8327,489
13.8384,493
13.8442,748
13.8499,899
13.8556,581
13.8613,1255
13.8671,808
13.8728,916
13.8785,1041
13.8842,1395
13.8899,1459
13.8957,847
13.9014,1648
13.9071,1650
13.9128,2548
13.9186,3519
13.9243,3596
13.93,4174
13.9357,2966
13.9414,2127
13.9472,3712
13.9529,4301
13.9586,4989
13.9643,3431
13.9701,4721
13.9758,3684
13.9815,3217
13.9872,2779
13.9929,1074
13.9987,1363
14.0044,1556
14.0101,3362
14.0158,8273
14.0216,20709
14.0273,45132
14.033,78991
14.0387,120601
14.0444,167636
14.0502,193567
14.0559,188481
14.0616,160345
14.0673,117938
14.0731,78679
14.0788,43029
14.0845,23756
14.0902,12597
14.0959,5288
14.1017,4004
14.1074,3421
14.1131,3798
14.1188,4665
14.1245,4167
14.1303,5384
14.136,5444
14.1417,3930
14.1474,3265
14.1532,3441
14.1589,3053
14.1646,1890
14.1703,1889
14.176,1867
14.1818,916
14.1875,2570
14.1932,2395
14.1989,2460
14.2047,2355
14.2104,3033
14.2161,866
14.2218,1335
14.2275,1162
14.2333,1304
14.239,1676
14.2447,1533
14.2504,2157
14.2562,2378
14.2619,3510
14.2676,3590
14.2733,3382
14.279,3418
14.2848,3244
14.2905,1982
14.2962,1422
14.3019,1102
14.3077,1134
14.3134,936
14.3191,995
14.3248,903
14.3305,870
14.3363,626
14.342,596
14.3477,152
14.3534,778
14.3592,517
14.3649,595
14.3706,851
14.3763,1441
14.382,3292
14.3878,6926
14.3935,11621
14.3992,18807
14.4049,23901
14.4107,29211
14.4164,29173
14.4221,25046
14.4278,21129
14.4335,15776
14.4393,12177
14.445,7539
14.4507,4705
14.4564,3920
14.4621,2670
14.4679,2110
14.4736,1641
14.4793,1419
14.485,1016
14.4908,1756
14.4965,1414
14.5022,1718
14.5079,962
14.5136,852
14.5194,1241
14.5251,1197
14.5308,849
14.5365,829
14.5423,1042
14.548,177
14.5537,821
14.5594,704
14.5651,1224
14.5709,651
14.5766,1247
14.5823,1391
14.588,653
14.5938,856
14.5995,768
14.6052,956
14.6109,607
14.6166,1106
14.6224,546
14.6281,1057
14.6338,931
14.6395,747
14.6453,1139
14.651,1229
14.6567,889
14.6624,1437
14.6681,1049
14.6739,1182
14.6796,2196
14.6853,3775
14.691,6541
14.6968,8462
14.7025,10812
14.7082,12394
14.7139,9707
14.7196,8165
14.7254,6911
14.7311,5520
14.7368,5589
14.7425,4673
14.7483,3142
14.754,2775
14.7597,1642
14.7654,2045
14.7711,1169
14.7769,1163
14.7826,1159
14.7883,1111
14.794,1035
14.7997,725
14.8055,470
14.8112,985
14.8169,1014
14.8226,1201
14.8284,495
14.8341,934
14.8398,1327
14.8455,896
14.8512,977
14.857,726
14.8627,557
14.8684,464
14.8741,820
14.8799,607
14.8856,695
14.8913,716
14.897,796
14.9027,275
14.9085,822
14.9142,430
14.9199,1013
14.9256,1615
14.9314,4440
14.9371,7421
14.9428,13492
14.9485,17224
14.9542,21032
14.96,23850
14.9657,21916
14.9714,18440
14.9771,13150
14.9829,8634
14.9886,5101
14.9943,3370
15,1940
15.0057,848
15.0115,1150
15.0172,1169
15.0229,614
15.0286,1392
15.0344,1019
15.0401,704
15.0458,480
15.0515,869
15.0572,843
15.063,685
15.0687,734
15.0744,769
15.0801,520
15.0859,758
15.0916,629
15.0973,848
15.103,767
15.1087,753
15.1145,711
15.1202,987
15.1259,803
15.1316,908
15.1374,563
15.1431,432
15.1488,699
15.1545,416
15.1602,600
15.166,771
15.1717,882
15.1774,1102
15.1831,920
15.1888,519
15.1946,994
15.2003,1443
15.206,1713
15.2117,1280
15.2175,510
15.2232,1023
15.2289,1098
15.2346,903
15.2403,990
15.2461,1163
15.2518,951
15.2575,1509
15.2632,1843
15.269,755
15.2747,1921
15.2804,1948
15.2861,2073
15.2918,3391
15.2976,8332
15.3033,11079
15.309,14197
15.3147,18224
15.3205,18538
15.3262,17738
15.3319,14346
15.3376,11290
15.3433,8379
15.3491,4528
15.3548,1910
15.3605,1162
15.3662,1187
15.372,1280
15.3777,784
15.3834,925
15.3891,659
15.3948,434
15.4006,925
15.4063,541
15.412,1002
15.4177,988
15.4235,997
15.4292,2105
15.4349,1820
15.4406,1525
15.4463,1304
15.4521,1289
15.4578,529
15.4635,494
15.4692,1156
15.475,693
15.4807,562
15.4864,342
15.4921,574
15.4978,523
15.5036,877
15.5093,578
15.515,305
15.5207,447
15.5264,883
15.5322,451
15.5379,648
15.5436,718
15.5493,1573
15.5551,2327
15.5608,2325
15.5665,2200
15.5722,2525
15.5779,447
15.5837,1105
15.5894,1238
15.5951,910
15.6008,1705
15.6066,2389
15.6123,3193
15.618,4379
15.6237,5657
15.6294,5268
15.6352,5737
15.6409,5220
15.6466,3773
15.6523,3325
15.6581,2272
15.6638,1790
15.6695,607
15.6752,1139
15.6809,593
15.6867,369
15.6924,979
15.6981,826
15.7038,641
15.7096,930
15.7153,577
15.721,870
15.7267,723
15.7324,655
15.7382,389
15.7439,590
15.7496,564
15.7553,341
15.7611,743
15.7668,899
15.7725,965
15.7782,1252
15.7839,1113
15.7897,2138
15.7954,3070
15.8011,2981
15.8068,3536
15.8126,4621
15.8183,5028
15.824,10113
15.8297,19823
15.8354,35466
15.8412,63458
15.8469,90848
15.8526,115833
15.8583,134956
15.864,135110
15.8698,121605
15.8755,88265
15.8812,63555
15.8869,39323
15.8927,20896
15.8984,9249
15.9041,4944
15.9098,2522
15.9155,1666
15.9213,1243
15.927,806
15.9327,941
15.9384,791
15.9442,502
15.9499,880
15.9556,633
15.9613,806
15.967,353
15.9728,829
15.9785,1161
15.9842,1352
15.9899,1987
15.9957,3538
16.0014,4611
16.0071,4864
16.0128,6213
16.0185,6201
16.0242,5562
16.03,4476
16.0357,5799
16.0414,6871
16.0471,9654
16.0529,13452
16.0586,22572
16.0643,30294
16.07,36179
16.0757,36745
16.0815,34119
16.0872,27485
16.0929,19635
16.0986,12846
16.1044,7104
16.1101,4420
16.1158,3211
16.1215,2266
16.1273,2338
16.133,2020
16.1387,1854
16.1444,2847
16.1502,2736
16.1559,1784
16.1616,1165
16.1673,573
16.173,1020
16.1788,2263
16.1845,3143
16.1902,5370
16.1959,5594
16.2016,5255
16.2074,4923
16.2131,4561
16.2188,3644
16.2245,3107
16.2303,2551
16.236,2162
16.2417,1949
16.2474,1448
16.2531,1704
16.2589,1256
16.2646,1421
16.2703,626
16.276,1218
16.2817,2611
16.2875,2533
16.2932,3365
16.2989,5431
16.3046,5126
16.3104,4698
16.3161,4823
16.3218,4185
16.3275,2442
16.3333,1595
16.339,1477
16.3447,2092
16.3504,2252
16.3561,2733
16.3619,4834
16.3676,3510
16.3733,5829
16.379,4781
16.3848,4698
16.3905,3545
16.3962,3374
16.4019,2119
16.4076,1652
16.4134,1616
16.4191,826
16.4248,1008
16.4305,675
16.4363,707
16.442,1549
16.4477,3078
16.4534,3141
16.4591,3902
16.4648,4432
16.4706,3278
16.4763,4361
16.482,2933
16.4877,2221
16.4935,3137
16.4992,4351
16.5049,3118
16.5106,3627
16.5163,5214
16.5221,3698
16.5278,3955
16.5335,4107
16.5392,2878
16.545,1842
16.5507,1708
16.5564,1781
16.5621,1919
16.5679,1994
16.5736,2647
16.5793,2446
16.585,2233
16.5907,2006
16.5965,1858
16.6022,2691
16.6079,3140
16.6136,4843
16.6194,5323
16.6251,3976
16.6308,3016
16.6365,2762
16.6422,1662
16.648,1631
16.6537,1606
16.6594,1150
16.6651,1202
16.6709,1809
16.6766,823
16.6823,571
16.688,1254
16.6937,846
16.6994,411
16.7052,1077
16.7109,859
16.7166,362
16.7223,833
16.7281,615
16.7338,900
16.7395,1457
16.7452,1516
16.751,2245
16.7567,3536
16.7624,6004
16.7681,8788
16.7738,12762
16.7796,15288
16.7853,16641
16.791,14578
16.7967,12082
16.8025,9355
16.8082,6755
16.8139,4073
16.8196,1444
16.8254,1376
16.8311,1190
16.8368,629
16.8425,1063
16.8482,787
16.854,1815
16.8597,3031
16.8654,6128
16.8711,9032
16.8768,12907
16.8826,16815
16.8883,18822
16.894,19579
16.8997,16818
16.9054,12507
16.9112,10975
16.9169,8352
16.9226,4599
16.9283,3312
16.9341,3766
16.9398,2683
16.9455,2512
16.9512,2923
16.9569,3393
16.9627,3536
16.9684,4170
16.9741,5365
16.9798,5106
16.9856,4756
16.9913,7064
16.997,3438
17.0027,3027
17.0085,2909
17.0142,2883
17.0199,2496
17.0256,1885
17.0313,1712
17.0371,1261
17.0428,1394
17.0485,1972
17.0542,1449
17.06,2428
17.0657,3494
17.0714,3562
17.0771,5990
17.0828,8176
17.0886,10075
17.0943,13057
17.1,12987
17.1057,11607
17.1115,9219
17.1172,6417
17.1229,3622
17.1286,3442
17.1343,1122
17.14,1402
17.1458,878
17.1515,770
17.1572,822
17.1629,950
17.1687,665
17.1744,389
17.1801,1212
17.1858,591
17.1915,1025
17.1973,648
17.203,152
17.2087,549
17.2144,557
17.2202,736
17.2259,1351
17.2316,1616
17.2373,2565
17.2431,2681
17.2488,1964
17.2545,1780
17.2602,1084
17.2659,819
17.2717,909
17.2774,1187
17.2831,895
17.2888,2222
17.2946,4751
17.3003,8452
17.306,12005
17.3117,12736
17.3174,14740
17.3232,14745
17.3289,12811
17.3346,9442
17.3403,6074
17.3461,4401
17.3518,2268
17.3575,1596
17.3632,2032
17.3689,2275
17.3747,2018
17.3804,1196
17.3861,2122
17.3918,1430
17.3975,1407
17.4033,809
17.409,507
17.4147,679
17.4204,974
17.4262,732
17.4319,381
17.4376,869
17.4433,721
17.4491,0
17.4548,936
17.4605,684
17.4662,668
17.4719,1137
17.4777,1131
17.4834,498
17.4891,897
17.4948,964
17.5006,1438
17.5063,816
17.512,853
17.5177,1351
17.5234,1635
17.5292,1899
17.5349,1891
17.5406,1064
17.5463,512
17.5521,1369
17.5578,174
17.5635,322
17.5692,770
17.5749,801
17.5807,1013
17.5864,576
17.5921,691
17.5978,1379
17.6035,712
17.6093,886
17.615,1956
17.6207,1190
17.6264,765
17.6321,1003
17.6379,1063
17.6436,1065
17.6493,1141
17.655,845
17.6608,1004
17.6665,908
17.6722,909
17.6779,367
17.6837,1225
17.6894,921
17.6951,269
17.7008,578
17.7065,977
17.7123,861
17.718,1019
17.7237,1580
17.7294,1418
17.7352,1795
17.7409,1651
17.7466,2844
17.7523,3584
17.758,5372
17.7638,6023
17.7695,6624
17.7752,5553
17.7809,5441
17.7867,3597
17.7924,2724
17.7981,2404
17.8038,1429
17.8095,889
17.8153,1097
17.821,394
17.8267,831
17.8324,924
17.8382,1164
17.8439,2004
17.8496,3045
17.8553,5947
17.861,12130
17.8668,19339
17.8725,26305
17.8782,37761
17.8839,42630
17.8897,45780
17.8954,40533
17.9011,31582
17.9068,24611
17.9125,16163
17.9183,11134
17.924,7956
17.9297,5831
17.9354,5260
17.9411,5769
17.9469,4315
17.9526,3763
17.9583,3833
17.964,3181
17.9698,3523
17.9755,2770
17.9812,3025
17.9869,2266
17.9926,1786
17.9984,1775
18.0041,1234
18.0098,1175
18.0155,1148
18.0213,1753
18.027,1968
18.0327,2339
18.0384,4105
18.0441,4771
18.0499,3244
18.0556,4269
18.0613,3472
18.067,2440
18.0727,2429
18.0785,1914
18.0842,897
18.0899,1528
18.0956,1567
18.1014,2665
18.1071,2314
18.1128,2910
18.1185,2934
18.1243,4001
18.13,1893
18.1357,3205
18.1414,2568
18.1471,2635
18.1529,2696
18.1586,1318
18.1643,758
18.17,782
18.1758,618
18.1815,638
18.1872,1054
18.1929,739
18.1986,990
18.2044,1597
18.2101,808
18.2158,3041
18.2215,7389
18.2273,15686
18.233,29226
18.2387,49822
18.2444,71435
18.2501,88995
18.2559,97933
18.2616,94781
18.2673,77380
18.273,52584
18.2787,34193
18.2845,19733
18.2902,10314
18.2959,5030
18.3016,2979
18.3074,1915
18.3131,1426
18.3188,798
18.3245,961
18.3302,1337
18.336,1745
18.3417,1810
18.3474,2138
18.3531,1274
18.3589,1886
18.3646,2707
18.3703,2243
18.376,1759
18.3817,1252
18.3875,1582
18.3932,1425
18.3989,693
18.4046,1195
18.4104,736
18.4161,760
18.4218,1536
18.4275,913
18.4332,1207
18.439,1727
18.4447,1959
18.4504,1261
18.4561,1069
18.4619,1188
18.4676,1236
18.4733,971
18.479,1144
18.4847,1055
18.4904,811
18.4962,825
18.5019,243
18.5076,862
18.5134,590
18.5191,1506
18.5248,1147
18.5305,1300
18.5362,749
18.542,413
18.5477,637
18.5534,895
18.5591,1535
18.5649,875
18.5706,1201
18.5763,839
18.582,1542
18.5877,2082
18.5935,4168
18.5992,9762
18.6049,23304
18.6106,49215
18.6163,94059
18.6221,171301
18.6278,274831
18.6335,384913
18.6392,465830
18.645,469081
18.6507,415730
18.6564,315419
18.6621,198033
18.6678,112751
18.6736,62943
18.6793,35371
18.685,20796
18.6907,16892
18.6965,14762
18.7022,13234
18.7079,11729
18.7136,10643
18.7193,10522
18.7251,9229
18.7308,10327
18.7365,8753
18.7422,9866
18.7479,8299
18.7537,7773
18.7594,5790
18.7651,6420
18.7708,5098
18.7766,5377
18.7823,5640
18.788,4750
18.7937,5131
18.7995,3451
18.8052,2794
18.8109,3289
18.8166,3199
18.8223,3874
18.8281,3905
18.8338,4612
18.8395,3918
18.8452,4350
18.851,4812
18.8567,2609
18.8624,2873
18.8681,2724
18.8738,2311
18.8796,1984
18.8853,1477
18.891,2994
18.8967,2710
18.9025,2931
18.9082,3760
18.9139,3925
18.9196,4784
18.9253,6455
18.9311,4409
18.9368,6430
18.9425,6516
18.9482,7745
18.9539,7071
18.9597,7657
18.9654,7586
18.9711,5024
18.9768,3733
18.9826,4084
18.9883,2284
18.994,1766
18.9997,2035
19.0054,2653
19.0112,2175
19.0169,1189
19.0226,1856
19.0283,1603
19.0341,2181
19.0398,1820
19.0455,3369
19.0512,8274
19.0569,20539
19.0627,48265
19.0684,106339
19.0741,199762
19.0798,319266
19.0856,445684
19.0913,546551
19.097,555624
19.1027,506652
19.1084,376542
19.1142,253882
19.1199,149562
19.1256,79922
19.1313,44993
19.1371,25265
19.1428,15783
19.1485,14220
19.1542,14667
19.1599,17236
19.1656,32557
19.1714,71408
19.1771,150570
19.1828,320559
19.1885,601595
19.1943,1026331
19.2,1583617
19.2057,2252115
19.2114,2982252
19.2172,3550047
19.2229,3970635
19.2286,4080479
19.2343,3615260
19.2401,2836110
19.2458,1822238
19.2515,963011
19.2572,437840
19.2629,188096
19.2687,84234
19.2744,47236
19.2801,42252
19.2858,47386
19.2915,54369
19.2973,61289
19.303,63417
19.3087,60817
19.3144,50903
19.3202,37851
19.3259,27532
19.3316,18853
19.3373,13417
19.343,10774
19.3488,9661
19.3545,8495
19.3602,10712
19.3659,12441
19.3717,16810
19.3774,18011
19.3831,21159
19.3888,21548
19.3945,21853
19.4003,19752
19.406,16848
19.4117,12969
19.4174,11033
19.4232,9834
19.4289,9502
19.4346,9556
19.4403,8171
19.446,8714
19.4518,5918
19.4575,4779
19.4632,3456
19.4689,3382
19.4747,3157
19.4804,2875
19.4861,3125
19.4918,3156
19.4975,3688
19.5033,4061
19.509,4555
19.5147,5030
19.5204,4423
19.5262,4371
19.5319,4198
19.5376,3932
19.5433,3082
19.549,2392
19.5548,1906
19.5605,1680
19.5662,1256
19.5719,1972
19.5777,2067
19.5834,1785
19.5891,1791
19.5948,2917
19.6005,2926
19.6062,3223
19.612,3094
19.6177,3559
19.6234,3608
19.6291,4271
19.6349,5164
19.6406,6513
19.6463,9436
19.652,12286
19.6578,14345
19.6635,15184
19.6692,14413
19.6749,13723
19.6806,10692
19.6864,7407
19.6921,6797
19.6978,4077
19.7035,3535
19.7093,2537
19.715,1518
19.7207,2302
19.7264,1077
19.7321,1457
19.7379,2061
19.7436,1215
19.7493,2484
19.755,3162
19.7608,1752
19.7665,2951
19.7722,2083
19.7779,3632
19.7836,3627
19.7894,2922
19.7951,3421
19.8008,2061
19.8065,3331
19.8123,1147
19.818,1668
19.8237,1018
19.8294,1357
19.8351,1207
19.8409,1743
19.8466,1577
19.8523,1917
19.858,1680
19.8638,2745
19.8695,2099
19.8752,1783
19.8809,1644
19.8866,1609
19.8924,1319
19.8981,1218
19.9038,1462
19.9095,1367
19.9153,957
19.921,1617
19.9267,512
19.9324,2357
19.9381,1432
19.9439,1588
19.9496,3330
19.9553,3003
19.961,3555
19.9667,2688
19.9725,2328
19.9782,2711
19.9839,3333
19.9896,2146
19.9954,2670
20.0011,1521
20.0068,3017
20.0125,2027
20.0182,1482
20.024,2672
20.0297,1070
20.0354,1999
20.0411,2459
20.0469,2163
20.0526,4379
20.0583,6498
20.064,8677
20.0697,9978
20.0755,11640
20.0812,9969
20.0869,9317
20.0926,7501
20.0984,7421
20.1041,8141
20.1098,9679
20.1155,11840
20.1212,11809
20.127,10478
20.1327,9347
20.1384,7680
20.1441,5102
20.1499,4471
20.1556,3831
20.1613,2594
20.167,2896
20.1727,3514
20.1785,4554
20.1842,4236
20.1899,6313
20.1956,4447
20.2014,4290
20.2071,4233
20.2128,3721
20.2185,2515
20.2242,2031
20.23,2344
20.2357,2483
20.2414,1800
20.2471,1408
20.2529,2225
20.2586,2408
20.2643,2740
20.27,2545
20.2757,2949
20.2815,2371
20.2872,2222
20.2929,1137
20.2986,1414
20.3043,1952
20.3101,1660
20.3158,1308
20.3215,890
20.3272,1268
20.333,2194
20.3387,2241
20.3444,2679
20.3501,3422
20.3558,2840
20.3616,2377
20.3673,2892
20.373,1248
20.3787,3221
20.3845,1671
20.3902,1910
20.3959,882
20.4016,1167
20.4073,1857
20.4131,1455
20.4188,1006
20.4245,1055
20.4302,1482
20.436,1132
20.4417,1063
20.4474,985
20.4531,983
20.4588,1491
20.4646,630
20.4703,1369
20.476,537
20.4817,1225
20.4875,691
20.4932,907
20.4989,743
20.5046,890
20.5103,956
20.5161,820
20.5218,1643
20.5275,2505
20.5332,6417
20.539,17034
20.5447,39683
20.5504,87071
20.5561,161687
20.5618,261959
20.5676,376445
20.5733,455061
20.579,484639
20.5847,436787
20.5905,342200
20.5962,233479
20.6019,138835
20.6076,74580
20.6133,36789
20.6191,15080
20.6248,8208
20.6305,6412
20.6362,4802
20.642,6558
20.6477,6312
20.6534,5277
20.6591,4281
20.6648,5517
20.6706,7265
20.6763,11585
20.682,18189
20.6877,25547
20.6934,30432
20.6992,35510
20.7049,37202
20.7106,35330
20.7163,29537
20.722,19359
20.7278,12764
20.7335,7942
20.7392,5152
20.7449,2473
20.7507,1347
20.7564,1888
20.7621,1982
20.7678,1636
20.7736,1367
20.7793,2086
20.785,2346
20.7907,2635
20.7964,2672
20.8022,3003
20.8079,3145
20.8136,2074
20.8193,1597
20.8251,1306
20.8308,1795
20.8365,1456
20.8422,1305
20.8479,1008
20.8537,1223
20.8594,1939
20.8651,2262
20.8708,2240
20.8766,2081
20.8823,2318
20.888,3150
20.8937,2180
20.8994,2119
20.9052,2361
20.9109,3458
20.9166,7684
20.9223,15802
20.9281,34820
20.9338,73164
20.9395,133924
20.9452,223205
20.9509,329650
20.9567,422533
20.9624,482125
20.9681,487333
20.9738,436873
20.9796,336331
20.9853,226963
20.991,136817
20.9967,76359
21.0024,37855
21.0082,18596
21.0139,11852
21.0196,8440
21.0253,8187
21.031,7614
21.0368,6310
21.0425,6866
21.0482,5163
21.0539,4240
21.0597,3228
21.0654,3230
21.0711,2527
21.0768,1774
21.0825,2425
21.0883,1721
21.094,2818
21.0997,1986
21.1054,1545
21.1112,2058
21.1169,2286
21.1226,3716
21.1283,3222
21.134,4498
21.1398,3340
21.1455,3727
21.1512,2579
21.1569,2498
21.1626,1897
21.1684,1443
21.1741,1025
21.1798,1078
21.1855,1330
21.1913,1036
21.197,1036
21.2027,1908
21.2084,1298
21.2142,1233
21.2199,921
21.2256,341
21.2313,416
21.237,722
21.2428,1168
21.2485,1100
21.2542,959
21.2599,1180
21.2657,1098
21.2714,989
21.2771,1381
21.2828,2343
21.2885,3566
21.2943,7711
21.3,13836
21.3057,21562
21.3114,28938
21.3172,34543
21.3229,40072
21.3286,39490
21.3343,39041
21.34,35942
21.3458,33570
21.3515,29355
21.3572,27883
21.3629,24258
21.3686,23334
21.3744,20520
21.3801,16974
21.3858,11434
21.3915,8620
21.3973,6484
21.403,5123
21.4087,4406
21.4144,5325
21.4201,4847
21.4259,3817
21.4316,3958
21.4373,4828
21.443,4407
21.4488,3457
21.4545,4249
21.4602,4091
21.4659,4273
21.4716,3745
21.4774,3711
21.4831,3460
21.4888,3861
21.4945,3258
21.5003,2478
21.506,2221
21.5117,2444
21.5174,2439
21.5231,2121
21.5289,2388
21.5346,1862
21.5403,2185
21.546,3141
21.5518,3146
21.5575,2712
21.5632,3256
21.5689,2145
21.5746,3207
21.5804,2844
21.5861,3068
21.5918,2268
21.5975,2240
21.6033,1822
21.609,1934
21.6147,1985
21.6204,1911
21.6261,2464
21.6319,2976
21.6376,2562
21.6433,2902
21.649,2681
21.6548,2167
21.6605,2214
21.6662,1843
21.6719,2977
21.6776,4856
21.6834,7409
21.6891,9896
21.6948,8424
21.7005,9115
21.7062,9715
21.712,6986
21.7177,6554
21.7234,4321
21.7291,2896
21.7349,2463
21.7406,2008
21.7463,1390
21.752,1754
21.7577,1632
21.7635,1634
21.7692,1212
21.7749,1783
21.7806,2469
21.7864,2042
21.7921,1336
21.7978,1592
21.8035,1190
21.8092,1876
21.815,2092
21.8207,1622
21.8264,1336
21.8321,2017
21.8379,1707
21.8436,1817
21.8493,2088
21.855,1828
21.8607,2108
21.8665,1622
21.8722,2119
21.8779,2231
21.8836,4584
21.8894,3342
21.8951,4082
21.9008,3077
21.9065,2599
21.9122,2928
21.918,3610
21.9237,3798
21.9294,3710
21.9351,3995
21.9409,4078
21.9466,3374
21.9523,2405
21.958,3186
21.9637,2372
21.9695,2435
21.9752,1815
21.9809,2810
21.9866,2253
21.9924,2688
21.9981,2103
22.0038,2343
22.0095,2824
22.0152,2562
22.021,3315
22.0267,3643
22.0324,3779
22.0381,4634
22.0438,4131
22.0496,3792
22.0553,3968
22.061,3642
22.0667,4006
22.0725,2693
22.0782,3352
22.0839,2316
22.0896,2501
22.0953,2243
22.1011,3000
22.1068,1235
22.1125,2475
22.1182,2342
22.124,2455
22.1297,2035
22.1354,2465
22.1411,1949
22.1468,2967
22.1526,1778
22.1583,2002
22.164,2414
22.1697,1019
22.1755,1661
22.1812,1536
22.1869,855
22.1926,2375
22.1983,1120
22.2041,1864
22.2098,899
22.2155,2521
22.2212,2313
22.227,2794
22.2327,4855
22.2384,5427
22.2441,5222
22.2498,4553
22.2555,4590
22.2613,3415
22.267,2754
22.2727,1976
22.2784,2506
22.2842,2113
22.2899,1199
22.2956,2049
22.3013,1236
22.3071,1811
22.3128,1590
22.3185,1560
22.3242,1902
22.33,1891
22.3357,1023
22.3414,1767
22.3471,393
22.3528,2455
22.3586,889
22.3643,1064
22.37,1244
22.3757,925
22.3814,2244
22.3872,2612
22.3929,4442
22.3986,9251
22.4043,15978
22.4101,26820
22.4158,38766
22.4215,50683
22.4272,60275
22.4329,65166
22.4387,61445
22.4444,48349
22.4501,35878
22.4558,23836
22.4616,14670
22.4673,7725
22.473,5445
22.4787,3937
22.4844,2747
22.4902,2205
22.4959,3381
22.5016,2996
22.5073,4304
22.5131,4986
22.5188,5042
22.5245,6341
22.5302,6880
22.5359,7277
22.5417,6594
22.5474,5197
22.5531,5278
22.5588,5566
22.5646,5620
22.5703,6117
22.576,5729
22.5817,4480
22.5874,4559
22.5932,3390
22.5989,3634
22.6046,2515
22.6103,2466
22.6161,1825
22.6218,945
22.6275,1735
22.6332,1485
22.6389,1992
22.6447,1621
22.6504,1636
22.6561,1989
22.6618,2114
22.6676,2249
22.6733,2003
22.679,3090
22.6847,5357
22.6904,6568
22.6961,8756
22.7019,9629
22.7076,7903
22.7133,8946
22.719,7028
22.7248,4481
22.7305,3575
22.7362,2513
22.7419,2374
22.7477,1734
22.7534,2706
22.7591,2150
22.7648,2049
22.7705,1629
22.7763,3129
22.782,4165
22.7877,4016
22.7934,1974
22.7992,2910
22.8049,2465
22.8106,2040
22.8163,1926
22.822,2142
22.8278,1390
22.8335,1999
22.8392,1347
22.8449,1473
22.8507,1911
22.8564,2022
22.8621,1814
22.8678,1974
22.8735,2174
22.8793,2432
22.885,3008
22.8907,1312
22.8964,2385
22.9022,2582
22.9079,2624
22.9136,2709
22.9193,1847
22.925,1951
22.9308,2184
22.9365,1570
22.9422,1447
22.9479,2058
22.9537,1423
22.9594,526
22.9651,817
22.9708,1652
22.9765,1818
22.9823,1141
22.988,1433
22.9937,734
22.9994,1348
23.0052,1031
23.0109,2172
23.0166,1692
23.0223,1428
23.028,1892
23.0338,2059
23.0395,3066
23.0452,2020
23.0509,2633
23.0567,2267
23.0624,3397
23.0681,3606
23.0738,4188
23.0795,4724
23.0853,4883
23.091,4975
23.0967,3680
23.1024,2981
23.1081,2815
23.1139,1316
23.1196,815
23.1253,1191
23.131,1943
23.1368,1647
23.1425,841
23.1482,1086
23.1539,1266
23.1596,925
23.1654,820
23.1711,1693
23.1768,657
23.1825,1735
23.1883,3301
23.194,5231
23.1997,8497
23.2054,17781
23.2111,35456
23.2169,52642
23.2226,77251
23.2283,100367
23.234,119587
23.2398,122907
23.2455,115621
23.2512,97595
23.2569,77016
23.2626,62764
23.2684,49217
23.2741,49020
23.2798,41305
23.2855,41125
23.2913,35854
23.297,29985
23.3027,21111
23.3084,14127
23.3141,9042
23.3199,4728
23.3256,4313
23.3313,2746
23.337,1781
23.3428,1938
23.3485,1891
23.3542,2041
23.3599,2260
23.3656,2210
23.3714,1448
23.3771,1750
23.3828,1977
23.3885,1971
23.3943,1005
23.4,1283
23.4057,1415
23.4114,1672
23.4171,1924
23.4229,1422
23.4286,1532
23.4343,2405
23.44,1211
23.4457,1642
23.4515,1296
23.4572,1935
23.4629,1492
23.4686,1378
23.4744,1768
23.4801,1824
23.4858,2647
23.4915,1873
23.4972,1763
23.503,2112
23.5087,981
23.5144,1665
23.5201,919
23.5259,1608
23.5316,2274
23.5373,1850
23.543,3371
23.5487,2811
23.5545,2830
23.5602,3811
23.5659,3565
23.5716,2562
23.5774,4137
23.5831,2181
23.5888,2992
23.5945,2368
23.6002,3307
23.606,3124
23.6117,4166
23.6174,6165
23.6231,7023
23.6289,8169
23.6346,8947
23.6403,8534
23.646,8985
23.6517,7974
23.6575,7641
23.6632,6214
23.6689,5453
23.6746,3226
23.6804,2430
23.6861,2033
23.6918,1511
23.6975,1522
23.7032,1027
23.709,1266
23.7147,1915
23.7204,1358
23.7261,1230
23.7319,1481
23.7376,2242
23.7433,1617
23.749,2183
23.7547,2021
23.7605,2117
23.7662,1466
23.7719,2246
23.7776,1627
23.7833,2179
23.7891,1650
23.7948,1829
23.8005,2735
23.8062,1822
23.812,1208
23.8177,1477
23.8234,1541
23.8291,2039
23.8348,1434
23.8406,1353
23.8463,670
23.852,1691
23.8577,2266
23.8635,1660
23.8692,1329
23.8749,1231
23.8806,1565
23.8863,1095
23.8921,2618
23.8978,5026
23.9035,11064
23.9092,17682
23.915,31712
23.9207,50407
23.9264,65182
23.9321,82886
23.9378,89970
23.9436,85777
23.9493,73958
23.955,57651
23.9607,43566
23.9665,26620
23.9722,16892
23.9779,11715
23.9836,8550
23.9893,6082
23.9951,4462
24.0008,5802
24.0065,4231
24.0122,4601
24.018,4937
24.0237,5330
24.0294,7195
24.0351,11390
24.0408,17824
24.0466,25784
24.0523,33271
24.058,41526
24.0637,44556
24.0695,42195
24.0752,33517
24.0809,24719
24.0866,16235
24.0923,9968
24.0981,5964
24.1038,3524
24.1095,2775
24.1152,3238
24.1209,3233
24.1267,5494
24.1324,7798
24.1381,9711
24.1438,13137
24.1496,15582
24.1553,17765
24.161,19461
24.1667,15680
24.1724,15678
24.1782,15676
24.1839,14445
24.1896,16261
24.1953,19337
24.2011,19615
24.2068,19407
24.2125,20060
24.2182,16867
24.2239,12007
24.2297,8792
24.2354,7237
24.2411,5266
24.2468,5657
24.2525,7445
24.2583,7102
24.264,9445
24.2697,15388
24.2754,19228
24.2812,23709
24.2869,23874
24.2926,25063
24.2983,22582
24.3041,20236
24.3098,15307
24.3155,12402
24.3212,11016
24.3269,9574
24.3327,9788
24.3384,11567
24.3441,13181
24.3498,13643
24.3556,13113
24.3613,9208
24.367,8130
24.3727,6983
24.3784,4846
24.3842,4629
24.3899,3520
24.3956,3826
24.4013,4221
24.4071,3888
24.4128,3031
24.4185,2970
24.4242,3266
24.4299,2353
24.4357,2574
24.4414,2843
24.4471,2215
24.4528,3799
24.4585,2800
24.4643,2679
24.47,3384
24.4757,1543
24.4814,2437
24.4872,1702
24.4929,2984
24.4986,2459
24.5043,3075
24.51,3356
24.5158,4949
24.5215,7103
24.5272,9811
24.5329,13029
24.5387,15495
24.5444,18907
24.5501,20634
24.5558,21292
24.5615,18264
24.5673,15644
24.573,12892
24.5787,11610
24.5844,7125
24.5902,8005
24.5959,6907
24.6016,5619
24.6073,9267
24.613,11373
24.6188,14050
24.6245,13879
24.6302,14480
24.6359,14070
24.6417,13047
24.6474,11792
24.6531,10500
24.6588,8106
24.6645,6921
24.6703,4999
24.676,4237
24.6817,4595
24.6874,2796
24.6932,2966
24.6989,3369
24.7046,3986
24.7103,4194
24.716,4106
24.7218,4879
24.7275,4119
24.7332,3713
24.7389,3748
24.7447,3255
24.7504,2954
24.7561,1954
24.7618,2022
24.7675,3131
24.7733,3379
24.779,4011
24.7847,5737
24.7904,6437
24.7961,6893
24.8019,7043
24.8076,6764
24.8133,6599
24.819,6098
24.8248,4731
24.8305,5449
24.8362,4529
24.8419,4094
24.8476,4287
24.8534,5329
24.8591,4511
24.8648,3917
24.8705,3278
24.8763,2933
24.882,5262
24.8877,4203
24.8934,3754
24.8991,4768
24.9049,4637
24.9106,5223
24.9163,4653
24.922,3889
24.9278,3890
24.9335,3425
24.9392,3336
24.9449,2230
24.9506,2416
24.9564,2052
24.9621,2576
24.9678,4407
24.9735,8521
24.9793,15587
24.985,30473
24.9907,55518
24.9964,95179
25.0021,141122
25.0079,185487
25.0136,210071
25.0193,194700
25.025,163127
25.0308,126676
25.0365,79126
25.0422,50283
25.0479,32748
25.0536,33283
25.0594,53691
25.0651,101520
25.0708,190414
25.0765,345735
25.0823,552291
25.088,835094
25.0937,1129649
25.0994,1337995
25.1051,1447939
25.1109,1399203
25.1166,1208382
25.1223,892161
25.128,576212
25.1337,333989
25.1395,173766
25.1452,83300
25.1509,36467
25.1566,18453
25.1624,12419
25.1681,7961
25.1738,7100
25.1795,7011
25.1852,6879
25.191,6820
25.1967,5790
25.2024,6084
25.2081,6494
25.2139,6286
25.2196,6286
25.2253,5267
25.231,6620
25.2367,6050
25.2425,5401
25.2482,6648
25.2539,6359
25.2596,6471
25.2654,6812
25.2711,7644
25.2768,6263
25.2825,6476
25.2882,8713
25.294,9181
25.2997,14787
25.3054,28663
25.3111,54661
25.3169,107595
25.3226,180590
25.3283,269213
25.334,344478
25.3397,378071
25.3455,357840
25.3512,317878
25.3569,253554
25.3626,183343
25.3684,118141
25.3741,73939
25.3798,40233
25.3855,23549
25.3912,16251
25.397,8887
25.4027,7459
25.4084,6287
25.4141,6458
25.4199,7727
25.4256,6967
25.4313,9622
25.437,9512
25.4427,10193
25.4485,10837
25.4542,9535
25.4599,9843
25.4656,10934
25.4713,8352
25.4771,7695
25.4828,8094
25.4885,6598
25.4942,6386
25.5,5537
25.5057,4828
25.5114,4761
25.5171,4305
25.5228,5182
25.5286,5452
25.5343,6111
25.54,4729
25.5457,5359
25.5515,5073
25.5572,3948
25.5629,4897
25.5686,2947
25.5743,3635
25.5801,3155
25.5858,3009
25.5915,4473
25.5972,5631
25.603,5895
25.6087,7542
25.6144,8564
25.6201,10236
25.6258,12081
25.6316,12478
25.6373,13292
25.643,15517
25.6487,20850
25.6545,26844
25.6602,35688
25.6659,48035
25.6716,59873
25.6773,64043
25.6831,58863
25.6888,49574
25.6945,40221
25.7002,27486
25.706,19163
25.7117,12363
25.7174,8261
25.7231,7193
25.7288,5232
25.7346,3499
25.7403,3926
25.746,4301
25.7517,4041
25.7575,3565
25.7632,3241
25.7689,3502
25.7746,3312
25.7803,2631
25.786,1831
25.7918,3039
25.7975,2602
25.8032,2378
25.809,2390
25.8147,2183
25.8204,2531
25.8261,2496
25.8318,4454
25.8376,4537
25.8433,4614
25.849,6387
25.8547,6913
25.8604,7807
25.8662,7459
25.8719,5917
25.8776,7444
25.8833,6577
25.8891,6066
25.8948,5630
25.9005,6620
25.9062,6271
25.9119,5289
25.9177,4399
25.9234,4231
25.9291,3523
25.9348,2684
25.9406,2650
25.9463,2330
25.952,2155
25.9577,1904
25.9634,2307
25.9692,1832
25.9749,2313
25.9806,3247
25.9863,2743
25.9921,2920
25.9978,4132
26.0035,4456
26.0092,5289
26.0149,10642
26.0207,13722
26.0264,19454
26.0321,22827
26.0378,26188
26.0436,26767
26.0493,24647
26.055,21651
26.0607,16719
26.0664,14518
26.0722,10560
26.0779,8672
26.0836,5778
26.0893,5560
26.0951,6067
26.1008,6757
26.1065,5548
26.1122,5519
26.1179,5742
26.1237,5634
26.1294,3593
26.1351,2914
26.1408,3223
26.1466,2611
26.1523,2364
26.158,2625
26.1637,3366
26.1694,3937
26.1752,3753
26.1809,3631
26.1866,3869
26.1923,3310
26.198,2457
26.2038,2577
26.2095,3033
26.2152,2622
26.2209,2741
26.2267,2225
26.2324,2209
26.2381,2779
26.2438,2124
26.2495,3041
26.2553,2031
26.261,1938
26.2667,1862
26.2724,1274
26.2782,2216
26.2839,2834
26.2896,2566
26.2953,4307
26.301,11509
26.3068,23268
26.3125,54399
26.3182,120786
26.3239,253471
26.3297,477903
26.3354,817902
26.3411,1188252
26.3468,1692091
26.3525,2129578
26.3583,2563589
26.364,2764228
26.3697,2639900
26.3754,2171283
26.3812,1471063
26.3869,871377
26.3926,435765
26.3983,204575
26.404,95489
26.4098,56584
26.4155,37231
26.4212,31191
26.4269,29233
26.4327,24548
26.4384,21949
26.4441,18477
26.4498,17233
26.4555,13631
26.4613,12459
26.467,12031
26.4727,10661
26.4784,9520
26.4842,10403
26.4899,10342
26.4956,8375
26.5013,7740
26.507,7584
26.5128,7271
26.5185,6558
26.5242,6411
26.5299,6234
26.5356,7104
26.5414,6431
26.5471,7473
26.5528,7388
26.5585,9475
26.5643,8946
26.57,9350
26.5757,8625
26.5814,10739
26.5871,7993
26.5929,8711
26.5986,4674
26.6043,6389
26.61,6301
26.6158,5250
26.6215,6630
26.6272,9938
26.6329,13414
26.6386,18639
26.6444,33482
26.6501,47049
26.6558,60977
26.6615,73137
26.6673,76869
26.673,76541
26.6787,65289
26.6844,48680
26.6901,33714
26.6959,23556
26.7016,15665
26.7073,11095
26.713,9973
26.7188,6727
26.7245,7074
26.7302,6437
26.7359,7404
26.7416,5919
26.7474,5615
26.7531,7912
26.7588,9589
26.7645,9037
26.7703,10067
26.776,11208
26.7817,10997
26.7874,10443
26.7931,9653
26.7989,9171
26.8046,8145
26.8103,9240
26.816,8362
26.8218,11103
26.8275,9573
26.8332,11327
26.8389,11334
26.8446,9529
26.8504,8560
26.8561,6942
26.8618,6367
26.8675,5886
26.8732,6029
26.879,5254
26.8847,4215
26.8904,6245
26.8961,4831
26.9019,3895
26.9076,3899
26.9133,4773
26.919,5038
26.9247,4359
26.9305,3676
26.9362,4321
26.9419,3581
26.9476,3250
26.9534,4045
26.9591,4692
26.9648,5561
26.9705,4346
26.9762,5300
26.982,6712
26.9877,6047
26.9934,9317
26.9991,7122
27.0049,11867
27.0106,17006
27.0163,29770
27.022,44269
27.0277,67657
27.0335,92214
27.0392,118516
27.0449,130708
27.0506,128841
27.0564,117926
27.0621,95631
27.0678,67910
27.0735,42788
27.0792,27222
27.085,17399
27.0907,11361
27.0964,7839
27.1021,7148
27.1079,6673
27.1136,6188
27.1193,4465
27.125,5878
27.1307,4131
27.1365,5317
27.1422,4796
27.1479,5336
27.1536,7964
27.1594,13124
27.1651,17787
27.1708,24463
27.1765,29675
27.1822,33678
27.188,33866
27.1937,30833
27.1994,27655
27.2051,22816
27.2108,15715
27.2166,11966
27.2223,9746
27.228,8996
27.2337,8861
27.2395,8700
27.2452,8141
27.2509,8409
27.2566,7531
27.2623,7173
27.2681,5707
27.2738,4438
27.2795,4625
27.2852,4661
27.291,5117
27.2967,4330
27.3024,4338
27.3081,3864
27.3138,4052
27.3196,2997
27.3253,3253
27.331,4303
27.3367,3367
27.3425,4127
27.3482,6695
27.3539,7018
27.3596,9560
27.3653,9327
27.3711,11069
27.3768,10957
27.3825,11652
27.3882,9799
27.394,9119
27.3997,7267
27.4054,6622
27.4111,4691
27.4168,3938
27.4226,4912
27.4283,3680
27.434,3352
27.4397,3488
27.4455,5168
27.4512,6384
27.4569,7074
27.4626,12264
27.4683,17465
27.4741,22889
27.4798,26402
27.4855,32432
27.4912,32894
27.497,30842
27.5027,25396
27.5084,18935
27.5141,16098
27.5198,13179
27.5256,10809
27.5313,8468
27.537,7706
27.5427,9824
27.5484,7827
27.5542,8391
27.5599,9083
27.5656,8468
27.5713,7647
27.5771,6637
27.5828,6586
27.5885,5372
27.5942,5605
27.5999,4496
27.6057,6123
27.6114,6163
27.6171,6875
27.6228,6772
27.6286,8621
27.6343,8033
27.64,10225
27.6457,8366
27.6514,9136
27.6572,9919
27.6629,7409
27.6686,6413
27.6743,5638
27.6801,5516
27.6858,4366
27.6915,3005
27.6972,3655
27.7029,3578
27.7087,4641
27.7144,3478
27.7201,3213
27.7258,4093
27.7316,3424
27.7373,2827
27.743,4372
27.7487,3405
27.7544,3478
27.7602,3775
27.7659,4615
27.7716,5005
27.7773,5837
27.7831,6893
27.7888,9046
27.7945,8890
27.8002,9155
27.8059,9452
27.8117,8808
27.8174,8102
27.8231,6876
27.8288,7805
27.8346,7573
27.8403,7262
27.846,7042
27.8517,5729
27.8574,7561
27.8632,5449
27.8689,6213
27.8746,6415
27.8803,5503
27.886,5547
27.8918,3298
27.8975,3318
27.9032,3505
27.9089,3244
27.9147,2745
27.9204,2794
27.9261,3746
27.9318,3206
27.9375,3160
27.9433,3766
27.949,3865
27.9547,4158
27.9604,3661
27.9662,4878
27.9719,5995
27.9776,4599
27.9833,4680
27.989,5087
27.9948,6035
28.0005,6384
28.0062,5043
28.0119,5080
28.0177,5952
28.0234,4733
28.0291,4206
28.0348,5112
28.0405,4872
28.0463,5742
28.052,6341
28.0577,8372
28.0634,9877
28.0692,11812
28.0749,11301
28.0806,10410
28.0863,9582
28.092,8751
28.0978,6035
28.1035,6146
28.1092,4364
28.1149,4079
28.1207,4168
28.1264,4244
28.1321,4514
28.1378,3596
28.1435,4405
28.1493,3602
28.155,2891
28.1607,3553
28.1664,2355
28.1722,3366
28.1779,2811
28.1836,3176
28.1893,3163
28.195,2758
28.2008,3406
28.2065,3843
28.2122,2984
28.2179,3719
28.2236,4013
28.2294,4203
28.2351,6061
28.2408,7347
28.2465,11381
28.2523,17405
28.258,28931
28.2637,44863
28.2694,63188
28.2751,78317
28.2809,88842
28.2866,91805
28.2923,92695
28.298,81010
28.3038,63263
28.3095,46559
28.3152,33495
28.3209,24712
28.3266,19982
28.3324,15891
28.3381,11054
28.3438,12141
28.3495,11342
28.3553,11013
28.361,11536
28.3667,9045
28.3724,10328
28.3781,8334
28.3839,7204
28.3896,6374
28.3953,5256
28.401,6683
28.4068,7501
28.4125,9648
28.4182,14755
28.4239,21529
28.4296,27396
28.4354,36627
28.4411,38368
28.4468,40654
28.4525,45077
28.4583,39133
28.464,38530
28.4697,33652
28.4754,25355
28.4811,20912
28.4869,15337
28.4926,11009
28.4983,9524
28.504,7268
28.5098,7958
28.5155,8778
28.5212,8993
28.5269,9931
28.5326,12465
28.5384,13884
28.5441,10897
28.5498,9853
28.5555,10442
28.5613,7262
28.567,6701
28.5727,6299
28.5784,6936
28.5841,5342
28.5899,6242
28.5956,5658
28.6013,5977
28.607,7309
28.6127,6077
28.6185,6273
28.6242,6828
28.6299,7169
28.6356,6079
28.6414,4772
28.6471,6770
28.6528,4559
28.6585,5425
28.6642,4823
28.67,5545
28.6757,5503
28.6814,8072
28.6871,11396
28.6929,13627
28.6986,17469
28.7043,24662
28.71,34181
28.7157,40985
28.7215,45138
28.7272,48361
28.7329,55338
28.7386,63189
28.7444,69145
28.7501,74359
28.7558,85613
28.7615,88292
28.7672,88485
28.773,77106
28.7787,72558
28.7844,66736
28.7901,59326
28.7959,49113
28.8016,45695
28.8073,39704
28.813,33410
28.8187,27540
28.8245,27854
28.8302,31704
28.8359,34311
28.8416,38132
28.8474,41721
28.8531,43438
28.8588,40167
28.8645,38026
28.8702,35630
28.876,35517
28.8817,38095
28.8874,40908
28.8931,42822
28.8989,45706
28.9046,46698
28.9103,44817
28.916,37430
28.9217,29152
28.9275,21234
28.9332,17230
28.9389,11768
28.9446,9561
28.9503,8669
28.9561,7066
28.9618,5348
28.9675,7792
28.9732,6193
28.979,6670
28.9847,7818
28.9904,11270
28.9961,13362
29.0018,16129
29.0076,19425
29.0133,22182
29.019,21064
29.0247,23374
29.0305,23941
29.0362,22997
29.0419,19529
29.0476,17396
29.0533,15286
29.0591,14845
29.0648,14080
29.0705,12718
29.0762,12446
29.082,13491
29.0877,12613
29.0934,12984
29.0991,13458
29.1048,13538
29.1106,14108
29.1163,17944
29.122,18763
29.1277,25664
29.1335,33190
29.1392,45029
29.1449,57630
29.1506,70735
29.1563,80921
29.1621,82983
29.1678,72867
29.1735,64510
29.1792,55671
29.185,46761
29.1907,41194
29.1964,36559
29.2021,34757
29.2078,29230
29.2136,25126
29.2193,19695
29.225,15338
29.2307,12961
29.2365,9817
29.2422,9425
29.2479,7070
29.2536,8059
29.2593,8346
29.2651,8046
29.2708,9772
29.2765,12172
29.2822,15378
29.2879,18783
29.2937,24259
29.2994,29820
29.3051,32957
29.3108,33916
29.3166,31898
29.3223,28015
29.328,23052
29.3337,17405
29.3394,11703
29.3452,10034
29.3509,7598
29.3566,5999
29.3623,7196
29.3681,7161
29.3738,5389
29.3795,5687
29.3852,6442
29.3909,5654
29.3967,6625
29.4024,6693
29.4081,5423
29.4138,7931
29.4196,6730
29.4253,7473
29.431,7114
29.4367,8469
29.4424,10377
29.4482,8057
29.4539,9232
29.4596,7240
29.4653,4764
29.4711,5194
29.4768,6108
29.4825,6571
29.4882,9573
29.4939,13018
29.4997,18932
29.5054,25965
29.5111,38238
29.5168,52342
29.5226,62714
29.5283,70681
29.534,76175
29.5397,73493
29.5454,63410
29.5512,49749
29.5569,34246
29.5626,26952
29.5683,21620
29.5741,17324
29.5798,16032
29.5855,14648
29.5912,14744
29.5969,14168
29.6027,14039
29.6084,15216
29.6141,15745
29.6198,18006
29.6255,19251
29.6313,20326
29.637,19410
29.6427,18270
29.6484,17200
29.6542,12450
29.6599,11907
29.6656,10392
29.6713,10281
29.677,9099
29.6828,7963
29.6885,6814
29.6942,5780
29.6999,5365
29.7057,5755
29.7114,4911
29.7171,5874
29.7228,7029
29.7285,6101
29.7343,6622
29.74,8956
29.7457,10382
29.7514,8506
29.7572,11167
29.7629,10986
29.7686,11847
29.7743,10958
29.78,10239
29.7858,9248
29.7915,8322
29.7972,7653
29.8029,6871
29.8087,6082
29.8144,6672
29.8201,6567
29.8258,6209
29.8315,7628
29.8373,5773
29.843,5921
29.8487,5153
29.8544,5086
29.8602,3982
29.8659,4040
29.8716,4145
29.8773,5463
29.883,6181
29.8888,6582
29.8945,7624
29.9002,10080
29.9059,10024
29.9117,14695
29.9174,14347
29.9231,17438
29.9288,21351
29.9345,27156
29.9403,31646
29.946,38546
29.9517,38307
29.9574,39775
29.9631,38283
29.9689,32718
29.9746,31590
29.9803,28913
29.986,25395
29.9918,22909
29.9975,22025
30.0032,20348
30.0089,17823
30.0146,13315
30.0204,12883
30.0261,9808
30.0318,8865
30.0375,7677
30.0433,6977
30.049,7142
30.0547,7705
30.0604,7235
30.0661,7225
30.0719,8031
30.0776,4899
30.0833,5933
30.089,5684
30.0948,6087
30.1005,4552
30.1062,4596
30.1119,5287
30.1176,5598
30.1234,5140
30.1291,5439
30.1348,4248
30.1405,5581
30.1463,4832
30.152,5036
30.1577,4159
30.1634,4631
30.1691,4545
30.1749,5367
30.1806,5462
30.1863,7211
30.192,12161
30.1978,13560
30.2035,20176
30.2092,22209
30.2149,26982
30.2206,27709
30.2264,25332
30.2321,23100
30.2378,18667
30.2435,15990
30.2493,12741
30.255,9696
30.2607,8818
30.2664,8208
30.2721,8517
30.2779,6250
30.2836,7537
30.2893,7977
30.295,8855
30.3007,8778
30.3065,8864
30.3122,8123
30.3179,8429
30.3236,7337
30.3294,7828
30.3351,6584
30.3408,8464
30.3465,8073
30.3522,6306
30.358,8513
30.3637,6830
30.3694,7360
30.3751,6327
30.3809,6410
30.3866,5771
30.3923,5304
30.398,5263
30.4037,4796
30.4095,4696
30.4152,4238
30.4209,3687
30.4266,5182
30.4324,4182
30.4381,5982
30.4438,4973
30.4495,5495
30.4552,4376
30.461,5490
30.4667,6768
30.4724,6908
30.4781,7294
30.4839,7690
30.4896,7524
30.4953,7398
30.501,7908
30.5067,5674
30.5125,5126
30.5182,5096
30.5239,3423
30.5296,4286
30.5354,3755
30.5411,3886
30.5468,3458
30.5525,3838
30.5582,3781
30.564,5370
30.5697,6006
30.5754,5888
30.5811,6631
30.5869,5556
30.5926,6153
30.5983,6718
30.604,5061
30.6097,5831
30.6155,5873
30.6212,5989
30.6269,6465
30.6326,6270
30.6383,7635
30.6441,7866
30.6498,7560
30.6555,9032
30.6612,8614
30.667,9611
30.6727,11198
30.6784,14644
30.6841,26746
30.6898,45009
30.6956,81765
30.7013,138244
30.707,238821
30.7127,347783
30.7185,519474
30.7242,699741
30.7299,951210
30.7356,1189426
30.7413,1428592
30.7471,1674687
30.7528,1957199
30.7585,2229201
30.7642,2554679
30.77,2875597
30.7757,3125194
30.7814,3464513
30.7871,3763187
30.7928,4075212
30.7986,4408948
30.8043,4797813
30.81,5036769
30.8157,5385169
30.8215,5731828
30.8272,5921041
30.8329,6194460
30.8386,6359549
30.8443,6198050
30.8501,4837311
30.8558,2330079
30.8615,752640
30.8672,283064
30.873,174089
30.8787,128724
30.8844,112524
30.8901,101544
30.8958,90197
30.9016,83070
30.9073,75805
30.913,73053
30.9187,70243
30.9245,67153
30.9302,61936
30.9359,61437
30.9416,58271
30.9473,56780
30.9531,54239
30.9588,49861
30.9645,49592
30.9702,45683
30.9759,44481
30.9817,45564
30.9874,44905
30.9931,41382
30.9988,39686
31.0046,39535
31.0103,37170
31.016,35585
31.0217,35166
31.0274,34866
31.0332,35134
31.0389,33618
31.0446,33595
31.0503,34281
31.0561,34385
31.0618,31216
31.0675,30599
31.0732,29068
31.0789,28555
31.0847,28284
31.0904,27314
31.0961,27585
31.1018,26782
31.1076,25464
31.1133,24062
31.119,23498
31.1247,20918
31.1304,21952
31.1362,21925
31.1419,20458
31.1476,21917
31.1533,20364
31.1591,22734
31.1648,21795
31.1705,26117
31.1762,27690
31.1819,34008
31.1877,38495
31.1934,49600
31.1991,58092
31.2048,65656
31.2106,72135
31.2163,69214
31.222,64430
31.2277,55123
31.2334,44778
31.2392,36111
31.2449,28671
31.2506,26851
31.2563,24886
31.2621,22253
31.2678,21963
31.2735,23147
31.2792,21160
31.2849,19074
31.2907,20813
31.2964,18645
31.3021,19477
31.3078,17647
31.3136,18048
31.3193,17767
31.325,17092
31.3307,16604
31.3364,16511
31.3422,17027
31.3479,17662
31.3536,16944
31.3593,15385
31.365,14494
31.3708,15861
31.3765,15421
31.3822,13413
31.3879,15169
31.3937,14747
31.3994,16151
31.4051,17235
31.4108,16351
31.4165,16424
31.4223,16372
31.428,17211
31.4337,16200
31.4394,16107
31.4452,14696
31.4509,14561
31.4566,15296
31.4623,13743
31.468,13615
31.4738,12698
31.4795,13092
31.4852,11858
31.4909,11654
31.4967,12349
31.5024,10356
31.5081,12182
31.5138,11021
31.5195,10958
31.5253,11354
31.531,11526
31.5367,10942
31.5424,12376
31.5482,12302
31.5539,12038
31.5596,11858
31.5653,11848
31.571,12913
31.5768,11099
31.5825,11131
31.5882,11533
31.5939,11866
31.5997,11731
31.6054,11438
31.6111,11456
31.6168,10491
31.6225,10713
31.6283,12136
31.634,11593
31.6397,13930
31.6454,17472
31.6512,17406
31.6569,22240
31.6626,21678
31.6683,23041
31.674,21489
31.6798,20679
31.6855,18123
31.6912,17383
31.6969,14282
31.7026,12509
31.7084,12233
31.7141,12916
31.7198,15039
31.7255,16341
31.7313,21438
31.737,28062
31.7427,38223
31.7484,52068
31.7541,67817
31.7599,87964
31.7656,102133
31.7713,102038
31.777,100988
31.7828,84406
31.7885,68097
31.7942,52026
31.7999,34127
31.8056,27295
31.8114,22761
31.8171,19135
31.8228,20063
31.8285,18702
31.8343,20210
31.84,21829
31.8457,21395
31.8514,20655
31.8571,19795
31.8629,19030
31.8686,16547
31.8743,16076
31.88,14704
31.8858,13011
31.8915,12154
31.8972,12720
31.9029,11422
31.9086,11873
31.9144,10714
31.9201,12316
31.9258,13333
31.9315,12439
31.9373,10607
31.943,11159
31.9487,11684
31.9544,12612
31.9601,12214
31.9659,11502
31.9716,10597
31.9773,9444
31.983,10531
31.9888,10619
31.9945,8619
32.0002,8882
32.0059,9836
32.0116,9807
32.0174,10469
32.0231,8819
32.0288,10937
32.0345,10745
32.0402,12646
32.046,14891
32.0517,18585
32.0574,16797
32.0631,18042
32.0688,16931
32.0746,15471
32.0803,14045
32.086,13168
32.0917,11690
32.0975,9529
32.1032,10837
32.1089,8714
32.1146,9050
32.1204,10093
32.1261,10505
32.1318,12898
32.1375,12713
32.1432,17911
32.149,18087
32.1547,19240
32.1604,18165
32.1661,18515
32.1718,16829
32.1776,14001
32.1833,14144
32.189,11553
32.1947,10943
32.2004,10034
32.2062,10163
32.2119,12025
32.2176,10428
32.2234,12511
32.2291,14043
32.2348,17501
32.2405,20223
32.2462,20118
32.252,20546
32.2577,21404
32.2634,17921
32.2691,16660
32.2749,13935
32.2806,12883
32.2863,12241
32.292,12578
32.2977,11640
32.3034,13198
32.3092,14822
32.3149,14154
32.3206,14060
32.3263,15543
32.3321,13388
32.3378,13948
32.3435,13574
32.3492,14696
32.355,14699
32.3607,15407
32.3664,14292
32.3721,13449
32.3778,12641
32.3836,13325
32.3893,12887
32.395,16691
32.4007,18159
32.4065,25893
32.4122,27166
32.4179,33583
32.4236,38596
32.4293,39200
32.4351,37687
32.4408,33900
32.4465,26508
32.4522,24590
32.4579,17553
32.4637,16343
32.4694,12364
32.4751,10398
32.4808,9704
32.4866,9369
32.4923,8953
32.498,9657
32.5037,10555
32.5095,9877
32.5152,9681
32.5209,8911
32.5266,10033
32.5323,9022
32.538,10859
32.5438,12832
32.5495,14252
32.5552,16861
32.5609,23007
32.5667,25576
32.5724,26469
32.5781,31081
32.5838,29786
32.5896,28705
32.5953,27960
32.601,23963
32.6067,22147
32.6125,18723
32.6182,19725
32.6239,17949
32.6296,15240
32.6353,13936
32.6411,15644
32.6468,17632
32.6525,15927
32.6582,14886
32.664,15324
32.6697,14492
32.6754,15095
32.6811,14374
32.6868,14913
32.6925,15488
32.6983,17965
32.704,20241
32.7097,21344
32.7154,21484
32.7212,23071
32.7269,23562
32.7326,20727
32.7383,19946
32.7441,15455
32.7498,14159
32.7555,11994
32.7612,10749
32.7669,11354
32.7727,11562
32.7784,14372
32.7841,18557
32.7898,25025
32.7955,36509
32.8013,48599
32.807,60092
32.8127,68117
32.8184,72292
32.8242,69696
32.8299,62039
32.8356,47738
32.8413,36202
32.8471,26525
32.8528,23407
32.8585,19443
32.8642,17492
32.8699,16730
32.8757,14944
32.8814,11973
32.8871,12580
32.8928,11042
32.8986,10340
32.9043,8589
32.91,9608
32.9157,8779
32.9214,9027
32.9271,8789
32.9329,8210
32.9386,8291
32.9443,6929
32.95,9451
32.9558,7618
32.9615,7767
32.9672,9122
32.9729,8309
32.9787,10550
32.9844,11224
32.9901,11645
32.9958,14004
33.0016,17191
33.0073,18267
33.013,21306
33.0187,18636
33.0244,23124
33.0301,18093
33.0359,16321
33.0416,14688
33.0473,11167
33.053,10573
33.0588,7746
33.0645,8386
33.0702,9457
33.0759,8250
33.0817,7784
33.0874,8294
33.0931,11340
33.0988,13341
33.1045,16554
33.1103,24915
33.116,34375
33.1217,45941
33.1274,63980
33.1332,84418
33.1389,103351
33.1446,103670
33.1503,98473
33.156,83710
33.1618,66826
33.1675,51834
33.1732,43316
33.1789,40200
33.1846,44963
33.1904,55448
33.1961,70207
33.2018,80347
33.2075,92676
33.2133,96045
33.219,86631
33.2247,73625
33.2304,59972
33.2362,50425
33.2419,39342
33.2476,34422
33.2533,25807
33.259,24547
33.2647,19574
33.2705,17030
33.2762,15898
33.2819,14041
33.2876,12849
33.2934,12520
33.2991,10596
33.3048,9865
33.3105,11284
33.3162,10620
33.322,9159
33.3277,10394
33.3334,10842
33.3391,12990
33.3449,13820
33.3506,14296
33.3563,17924
33.362,19360
33.3678,24615
33.3735,27216
33.3792,30227
33.3849,32467
33.3906,35504
33.3964,32611
33.4021,30009
33.4078,27861
33.4135,24031
33.4192,21578
33.425,18168
33.4307,20698
33.4364,20683
33.4421,21042
33.4479,18538
33.4536,19055
33.4593,17432
33.465,19454
33.4708,17940
33.4765,16852
33.4822,16536
33.4879,17815
33.4936,18686
33.4994,20646
33.5051,24793
33.5108,34513
33.5165,43365
33.5223,56059
33.528,69844
33.5337,77379
33.5394,76522
33.5451,70097
33.5509,60442
33.5566,48805
33.5623,38326
33.568,34236
33.5737,26682
33.5795,25931
33.5852,23369
33.5909,22928
33.5966,22510
33.6024,22789
33.6081,23969
33.6138,23221
33.6195,22918
33.6253,25120
33.631,23404
33.6367,22542
33.6424,23947
33.6481,23343
33.6538,23062
33.6596,25571
33.6653,25822
33.671,28316
33.6767,28655
33.6825,30006
33.6882,27855
33.6939,26318
33.6996,27879
33.7054,25206
33.7111,24289
33.7168,23767
33.7225,23948
33.7283,24600
33.734,24486
33.7397,21757
33.7454,17943
33.7511,19932
33.7569,20863
33.7626,20572
33.7683,20047
33.774,20504
33.7797,20671
33.7855,20281
33.7912,17841
33.7969,17402
33.8026,17658
33.8083,15396
33.8141,16472
33.8198,18278
33.8255,18858
33.8312,18686
33.837,19668
33.8427,20416
33.8484,17869
33.8541,15696
33.8599,13087
33.8656,13007
33.8713,10663
33.877,9850
33.8827,8421
33.8885,9986
33.8942,8227
33.8999,9194
33.9056,8178
33.9113,8623
33.9171,9542
33.9228,10928
33.9285,13325
33.9342,11790
33.94,15879
33.9457,14560
33.9514,16264
33.9571,15104
33.9629,13512
33.9686,14735
33.9743,13603
33.98,11432
33.9857,11023
33.9915,8941
33.9972,7876
34.0029,8751
34.0086,7416
34.0144,7004
34.0201,5871
34.0258,6383
34.0315,6458
34.0372,7876
34.0429,6578
34.0487,5598
34.0544,5972
34.0601,5544
34.0658,6647
34.0716,5676
34.0773,4495
34.083,5840
34.0887,6568
34.0945,5891
34.1002,4304
34.1059,4647
34.1116,5811
34.1173,4308
34.1231,6675
34.1288,5250
34.1345,5264
34.1402,4187
34.1459,5092
34.1517,6327
34.1574,5783
34.1631,4460
34.1688,5911
34.1746,5177
34.1803,5903
34.186,6674
34.1917,7239
34.1975,5864
34.2032,6870
34.2089,7226
34.2146,7474
34.2203,9414
34.2261,8103
34.2318,7212
34.2375,8248
34.2432,6701
34.249,7000
34.2547,8874
34.2604,8759
34.2661,7444
34.2718,7280
34.2775,8176
34.2833,6539
34.289,6124
34.2947,5299
34.3004,5952
34.3062,5304
34.3119,5243
34.3176,4434
34.3233,4859
34.3291,5505
34.3348,5425
34.3405,6219
34.3462,4981
34.352,3941
34.3577,6530
34.3634,5651
34.3691,7156
34.3748,8065
34.3805,9489
34.3863,8974
34.392,10332
34.3977,9624
34.4034,9307
34.4092,8981
34.4149,8098
34.4206,8407
34.4263,8233
34.432,10372
34.4378,13453
34.4435,19559
34.4492,24974
34.4549,35025
34.4607,44761
34.4664,48576
34.4721,55711
34.4778,54108
34.4836,43267
34.4893,33814
34.495,23089
34.5007,16421
34.5064,11011
34.5122,8442
34.5179,6733
34.5236,6663
34.5293,5391
34.535,5458
34.5408,5546
34.5465,4833
34.5522,5820
34.5579,5336
34.5637,6980
34.5694,6691
34.5751,7662
34.5808,8289
34.5866,8635
34.5923,9871
34.598,7504
34.6037,7281
34.6094,6274
34.6152,5943
34.6209,5828
34.6266,4546
34.6323,3520
34.6381,4755
34.6438,4754
34.6495,4733
34.6552,5096
34.6609,4281
34.6666,5461
34.6724,5350
34.6781,6723
34.6838,6237
34.6895,6506
34.6953,7181
34.701,8721
34.7067,8231
34.7124,8480
34.7182,8029
34.7239,5804
34.7296,6810
34.7353,5333
34.7411,5468
34.7468,6287
34.7525,4939
34.7582,4977
34.7639,5724
34.7696,4424
34.7754,4794
34.7811,4282
34.7868,4054
34.7925,4785
34.7983,5394
34.804,4294
34.8097,3923
34.8154,4434
34.8212,5539
34.8269,4723
34.8326,5611
34.8383,5267
34.844,4053
34.8498,3616
34.8555,4442
34.8612,3049
34.8669,4173
34.8727,3619
34.8784,4859
34.8841,4861
34.8898,4204
34.8955,4422
34.9013,4252
34.907,3663
34.9127,3555
34.9184,5131
34.9241,4590
34.9299,4354
34.9356,4811
34.9413,4314
34.947,4430
34.9528,4240
34.9585,5215
34.9642,3575
34.9699,3676
34.9757,4466
34.9814,5393
34.9871,5899
34.9928,6026
34.9985,11622
35.0042,21803
35.01,45077
35.0157,90476
35.0214,162583
35.0271,269309
35.0329,394678
35.0386,511323
35.0443,586525
35.05,621353
35.0558,562615
35.0615,482841
35.0672,404186
35.0729,349251
35.0787,313432
35.0844,281850
35.0901,260022
35.0958,217808
35.1015,163470
35.1073,114507
35.113,75651
35.1187,47133
35.1244,25151
35.1301,15531
35.1359,12187
35.1416,8050
35.1473,7610
35.153,6801
35.1588,6079
35.1645,6224
35.1702,5554
35.1759,5310
35.1816,5694
35.1874,5613
35.1931,6721
35.1988,5927
35.2045,5843
35.2103,6355
35.216,5818
35.2217,5151
35.2274,4823
35.2331,6445
35.2389,5810
35.2446,6104
35.2503,7891
35.256,7579
35.2617,6826
35.2675,7932
35.2732,7461
35.2789,6499
35.2846,6628
35.2904,6589
35.2961,4997
35.3018,5335
35.3075,5130
35.3133,4687
35.319,3411
35.3247,4851
35.3304,4486
35.3361,4808
35.3419,3541
35.3476,4501
35.3533,4267
35.359,3724
35.3648,4610
35.3705,4377
35.3762,4619
35.3819,4539
35.3876,4477
35.3934,3135
35.3991,3898
35.4048,4088
35.4105,4025
35.4163,4198
35.422,5194
35.4277,4954
35.4334,4435
35.4391,5610
35.4449,4184
35.4506,4960
35.4563,4296
35.462,5836
35.4677,3943
35.4735,3411
35.4792,3637
35.4849,4302
35.4906,3676
35.4964,5254
35.5021,4455
35.5078,3287
35.5135,4011
35.5192,5212
35.525,4578
35.5307,7192
35.5364,5704
35.5421,5544
35.5479,6661
35.5536,7028
35.5593,4600
35.565,7419
35.5707,6548
35.5765,6869
35.5822,5609
35.5879,5966
35.5936,7920
35.5994,8247
35.6051,8553
35.6108,9410
35.6165,9986
35.6222,11842
35.6279,8899
35.6337,8940
35.6394,7761
35.6451,6413
35.6508,5899
35.6566,6411
35.6623,6388
35.668,6372
35.6737,6969
35.6795,6573
35.6852,6429
35.6909,7222
35.6966,5710
35.7024,5001
35.7081,6320
35.7138,4191
35.7195,6068
35.7252,6033
35.731,6331
35.7367,7368
35.7424,7815
35.7481,7958
35.7539,8886
35.7596,9984
35.7653,8936
35.771,7421
35.7767,7649
35.7825,6002
35.7882,6273
35.7939,4441
35.7996,6277
35.8053,7171
35.8111,6322
35.8168,7659
35.8225,5749
35.8282,5114
35.834,5730
35.8397,4609
35.8454,5180
35.8511,4175
35.8568,4993
35.8626,5011
35.8683,5208
35.874,5078
35.8797,5692
35.8854,5824
35.8912,6910
35.8969,7699
35.9026,7537
35.9083,8685
35.9141,9039
35.9198,8215
35.9255,9793
35.9312,8749
35.937,8012
35.9427,7402
35.9484,8250
35.9541,7863
35.9598,6723
35.9656,7343
35.9713,6743
35.977,5419
35.9827,5487
35.9885,5044
35.9942,5679
35.9999,5007
36.0056,5156
36.0113,6385
36.0171,4824
36.0228,4477
36.0285,4850
36.0342,5065
36.04,3558
36.0457,4913
36.0514,3389
36.0571,4166
36.0628,4580
36.0686,5048
36.0743,3939
36.08,4324
36.0857,3830
36.0915,4301
36.0972,4850
36.1029,3665
36.1086,4524
36.1143,4276
36.12,5107
36.1258,5337
36.1315,4662
36.1372,4154
36.1429,4199
36.1487,3962
36.1544,5485
36.1601,6014
36.1658,5062
36.1716,4528
36.1773,4885
36.183,5720
36.1887,5602
36.1944,4866
36.2002,5221
36.2059,4842
36.2116,4907
36.2173,5764
36.2231,5056
36.2288,6619
36.2345,6210
36.2402,5329
36.2459,5247
36.2517,5728
36.2574,4848
36.2631,5242
36.2688,5631
36.2746,5390
36.2803,6539
36.286,5905
36.2917,6671
36.2974,10283
36.3032,8511
36.3089,9956
36.3146,10767
36.3203,11729
36.3261,13904
36.3318,12750
36.3375,12251
36.3432,9875
36.3489,8609
36.3546,7542
36.3604,5505
36.3661,6892
36.3718,5754
36.3775,4644
36.3833,5318
36.389,5274
36.3947,4711
36.4004,5687
36.4062,4667
36.4119,4571
36.4176,4605
36.4233,4917
36.4291,3751
36.4348,4729
36.4405,3880
36.4462,5803
36.4519,4788
36.4577,4408
36.4634,7365
36.4691,7810
36.4748,6335
36.4806,7987
36.4863,9196
36.492,8267
36.4977,8478
36.5034,6259
36.5091,8279
36.5149,6265
36.5206,6325
36.5263,6917
36.532,6719
36.5378,6378
36.5435,6154
36.5492,5212
36.5549,5524
36.5607,5368
36.5664,5105
36.5721,5889
36.5778,5203
36.5835,4610
36.5893,4722
36.595,5897
36.6007,4588
36.6064,4329
36.6122,4990
36.6179,4670
36.6236,4582
36.6293,4731
36.635,5505
36.6408,7517
36.6465,8462
36.6522,10685
36.6579,14906
36.6637,15531
36.6694,19597
36.6751,25188
36.6808,34932
36.6865,44895
36.6923,62615
36.698,79334
36.7037,100093
36.7094,111607
36.7152,110715
36.7209,104214
36.7266,89934
36.7323,73933
36.738,62518
36.7437,53562
36.7495,48395
36.7552,42899
36.7609,41474
36.7666,35826
36.7724,35937
36.7781,36798
36.7838,36828
36.7895,36625
36.7953,35133
36.801,37093
36.8067,34160
36.8124,32904
36.8182,34065
36.8239,30573
36.8296,31347
36.8353,31515
36.841,30890
36.8468,32454
36.8525,37956
36.8582,39509
36.8639,42753
36.8696,41633
36.8754,43399
36.8811,40017
36.8868,35986
36.8925,32474
36.8983,28777
36.904,24461
36.9097,21104
36.9154,18610
36.9211,17168
36.9269,14760
36.9326,14964
36.9383,14104
36.944,15057
36.9498,15638
36.9555,19520
36.9612,27808
36.9669,40104
36.9726,62167
36.9784,90152
36.9841,123035
36.9898,148839
36.9955,169577
37.0012,173440
37.007,157201
37.0127,130471
37.0184,103940
37.0241,77068
37.0299,64677
37.0356,53257
37.0413,48417
37.047,48149
37.0528,50180
37.0585,52154
37.0642,58589
37.0699,58508
37.0756,59553
37.0814,56063
37.0871,50794
37.0928,44147
37.0985,37877
37.1043,34655
37.11,29377
37.1157,26996
37.1214,22385
37.1271,19232
37.1329,17342
37.1386,17767
37.1443,15761
37.15,14382
37.1558,12637
37.1615,13299
37.1672,11972
37.1729,12049
37.1786,10665
37.1844,10024
37.1901,9332
37.1958,9401
37.2015,8980
37.2072,10981
37.213,9310
37.2187,10102
37.2244,8759
37.2301,9745
37.2358,10163
37.2416,9049
37.2473,9102
37.253,10723
37.2587,9416
37.2645,11628
37.2702,14128
37.2759,14866
37.2816,16028
37.2874,20529
37.2931,22670
37.2988,26337
37.3045,28677
37.3102,32989
37.316,29924
37.3217,29522
37.3274,25513
37.3331,22694
37.3389,19822
37.3446,17538
37.3503,15744
37.356,14828
37.3617,14497
37.3675,13171
37.3732,11803
37.3789,11124
37.3846,11838
37.3904,10833
37.3961,11038
37.4018,9357
37.4075,8421
37.4132,9748
37.419,10754
37.4247,13317
37.4304,15870
37.4361,24315
37.4419,31504
37.4476,50157
37.4533,65276
37.459,84220
37.4647,96967
37.4705,104750
37.4762,100305
37.4819,91839
37.4876,77797
37.4934,62877
37.4991,49451
37.5048,41297
37.5105,32971
37.5162,28760
37.522,27338
37.5277,27570
37.5334,30080
37.5391,32190
37.5448,38031
37.5506,44839
37.5563,47827
37.562,49892
37.5677,48392
37.5735,45644
37.5792,41348
37.5849,36190
37.5906,30534
37.5963,25602
37.6021,23718
37.6078,20473
37.6135,20137
37.6192,18058
37.6249,15929
37.6307,16041
37.6364,14066
37.6421,12686
37.6478,13264
37.6536,11994
37.6593,12121
37.665,12374
37.6707,11583
37.6765,13594
37.6822,13327
37.6879,16061
37.6936,18470
37.6993,21063
37.7051,22242
37.7108,21297
37.7165,22426
37.7222,19663
37.728,17778
37.7337,17200
37.7394,14062
37.7451,12272
37.7508,10161
37.7566,9931
37.7623,9920
37.768,8179
37.7737,9237
37.7795,8575
37.7852,9895
37.7909,14004
37.7966,18229
37.8023,26581
37.8081,44157
37.8138,74333
37.8195,112926
37.8252,170975
37.831,231486
37.8367,283443
37.8424,313334
37.8481,329394
37.8538,312892
37.8595,273513
37.8653,220588
37.871,166019
37.8767,116511
37.8824,76536
37.8882,50882
37.8939,33714
37.8996,24934
37.9053,17867
37.9111,15689
37.9168,14390
37.9225,12092
37.9282,13548
37.9339,11966
37.9397,9411
37.9454,10465
37.9511,9039
37.9568,10070
37.9626,9242
37.9683,10306
37.974,10856
37.9797,8781
37.9854,9718
37.9912,10830
37.9969,9223
38.0026,9545
38.0083,9904
38.0141,9486
38.0198,9565
38.0255,9487
38.0312,10218
38.0369,12641
38.0427,19579
38.0484,33013
38.0541,53976
38.0598,83721
38.0656,136256
38.0713,199704
38.077,267241
38.0827,330631
38.0884,374206
38.0941,369504
38.0999,341161
38.1056,287855
38.1113,227328
38.117,177643
38.1228,131363
38.1285,100247
38.1342,76560
38.1399,62351
38.1457,55091
38.1514,46014
38.1571,38795
38.1628,36202
38.1686,32115
38.1743,26921
38.18,27496
38.1857,24345
38.1914,21966
38.1972,24096
38.2029,22497
38.2086,22718
38.2143,23295
38.22,22720
38.2258,20733
38.2315,19585
38.2372,19050
38.2429,19269
38.2487,18254
38.2544,16960
38.2601,16278
38.2658,13885
38.2715,14193
38.2773,14260
38.283,15697
38.2887,14081
38.2944,13712
38.3002,12980
38.3059,12548
38.3116,13145
38.3173,12826
38.323,12688
38.3288,14465
38.3345,17417
38.3402,18484
38.3459,20633
38.3516,23227
38.3574,26175
38.3631,25696
38.3688,21659
38.3745,20779
38.3803,17974
38.386,14366
38.3917,13501
38.3974,11036
38.4032,12922
38.4089,12352
38.4146,11702
38.4203,11111
38.426,11863
38.4318,11512
38.4375,11753
38.4432,11971
38.4489,13917
38.4547,11870
38.4604,12690
38.4661,10634
38.4718,10495
38.4775,10312
38.4833,11000
38.489,11177
38.4947,10319
38.5004,10009
38.5062,9826
38.5119,10314
38.5176,11899
38.5233,11868
38.529,12640
38.5348,12402
38.5405,14515
38.5462,14296
38.5519,14702
38.5576,12885
38.5634,16455
38.5691,13640
38.5748,14212
38.5805,13528
38.5863,14701
38.592,17415
38.5977,22085
38.6034,26577
38.6091,29541
38.6149,31167
38.6206,29689
38.6263,24337
38.632,23467
38.6378,22568
38.6435,25127
38.6492,32155
38.6549,46691
38.6606,66526
38.6664,94187
38.6721,116368
38.6778,140037
38.6835,149810
38.6893,152328
38.695,146906
38.7007,132349
38.7064,103686
38.7121,74357
38.7179,51856
38.7236,33730
38.7293,21288
38.735,15858
38.7407,15897
38.7465,13564
38.7522,12583
38.7579,12556
38.7636,12538
38.7694,12931
38.7751,11929
38.7808,13359
38.7865,15016
38.7923,15922
38.798,16166
38.8037,15402
38.8094,17019
38.8151,14628
38.8209,13089
38.8266,13930
38.8323,11928
38.838,13754
38.8438,12052
38.8495,11048
38.8552,10732
38.8609,12571
38.8666,11461
38.8724,11745
38.8781,12635
38.8838,11628
38.8895,14060
38.8952,14285
38.901,14479
38.9067,14286
38.9124,12718
38.9181,11521
38.9239,11757
38.9296,10760
38.9353,12463
38.941,11764
38.9467,12024
38.9525,10226
38.9582,11328
38.9639,11825
38.9696,12461
38.9753,11603
38.9811,9140
38.9868,11587
38.9925,14238
38.9982,13861
39.004,14599
39.0097,17062
39.0154,20877
39.0211,26298
39.0269,38456
39.0326,51552
39.0383,73924
39.044,85391
39.0497,78931
39.0555,63243
39.0612,48464
39.0669,37350
39.0726,26942
39.0784,22505
39.0841,18420
39.0898,16508
39.0955,17263
39.1012,15483
39.107,15607
39.1127,15986
39.1184,16783
39.1241,15985
39.1299,15341
39.1356,14888
39.1413,17393
39.147,16939
39.1527,17090
39.1585,15748
39.1642,16002
39.1699,14978
39.1756,14759
39.1814,15557
39.1871,15890
39.1928,15908
39.1985,17627
39.2042,16375
39.2099,16290
39.2157,18731
39.2214,20382
39.2271,22495
39.2328,25361
39.2386,28177
39.2443,29009
39.25,26198
39.2557,24982
39.2615,21197
39.2672,17375
39.2729,18292
39.2786,17124
39.2843,16288
39.2901,19023
39.2958,16854
39.3015,16488
39.3072,15875
39.313,16277
39.3187,15171
39.3244,14413
39.3301,15311
39.3358,15311
39.3416,15779
39.3473,14700
39.353,13533
39.3587,14647
39.3645,15038
39.3702,15053
39.3759,16030
39.3816,16540
39.3873,17866
39.3931,14898
39.3988,16074
39.4045,16286
39.4102,14554
39.416,15918
39.4217,16180
39.4274,16712
39.4331,17933
39.4388,17812
39.4446,18159
39.4503,23953
39.456,30374
39.4617,40079
39.4674,44498
39.4732,49347
39.4789,50650
39.4846,47987
39.4903,43776
39.4961,37250
39.5018,34287
39.5075,30717
39.5132,27573
39.519,23934
39.5247,24385
39.5304,22237
39.5361,20886
39.5418,20900
39.5476,22228
39.5533,20823
39.559,21916
39.5647,22370
39.5705,21625
39.5762,22836
39.5819,23364
39.5876,23540
39.5933,25315
39.5991,24317
39.6048,23487
39.6105,23032
39.6162,23780
39.6219,22404
39.6277,23092
39.6334,24217
39.6391,24584
39.6448,29782
39.6506,28777
39.6563,29412
39.662,27835
39.6677,25784
39.6734,26690
39.6792,25706
39.6849,24252
39.6906,24971
39.6963,24477
39.7021,23651
39.7078,23164
39.7135,23477
39.7192,23940
39.7249,22710
39.7307,23399
39.7364,21673
39.7421,22298
39.7478,25629
39.7536,23791
39.7593,25001
39.765,25760
39.7707,27520
39.7764,29057
39.7822,26901
39.7879,26029
39.7936,25540
39.7993,27994
39.8051,28629
39.8108,27369
39.8165,25438
39.8222,27462
39.8279,25170
39.8336,28081
39.8394,28997
39.8451,25086
39.8508,27081
39.8565,26726
39.8623,27716
39.868,26609
39.8737,25455
39.8794,27409
39.8852,27749
39.8909,29312
39.8966,27739
39.9023,30252
39.9081,30252
39.9138,33705
39.9195,36059
39.9252,38960
39.9309,36630
39.9367,39322
39.9424,38335
39.9481,42623
39.9538,53817
39.9595,59780
39.9653,59888
39.971,53824
39.9767,45053
39.9824,37268
39.9882,33138
39.9939,30504
39.9996,31713
40.0053,30542
40.011,29842
40.0168,33363
40.0225,30848
40.0282,34072
40.0339,38533
40.0397,43067
40.0454,43595
40.0511,47510
40.0568,48573
40.0625,43992
40.0683,38722
40.074,33729
40.0797,33123
40.0854,34757
40.0911,37722
40.0969,36523
40.1026,40267
40.1083,37558
40.114,40351
40.1198,36625
40.1255,35759
40.1312,40539
40.1369,54197
40.1427,78719
40.1484,139184
40.1541,198577
40.1598,233133
40.1655,215723
40.1713,190231
40.177,153283
40.1827,144494
40.1884,124019
40.1942,107950
40.1999,94456
40.2056,93507
40.2113,101635
40.217,109132
40.2228,97831
40.2285,86142
40.2342,87629
40.2399,88271
40.2457,101012
40.2514,119082
40.2571,150836
40.2628,196688
40.2685,222800
40.2743,211860
40.28,160595
40.2857,116435
40.2914,102751
40.2971,107287
40.3029,105489
40.3086,98611
40.3143,78395
40.32,63265
40.3257,55500
40.3315,52452
40.3372,46155
40.3429,50794
40.3486,50272
40.3544,55615
40.3601,62468
40.3658,69762
40.3715,71533
40.3773,60981
40.383,60056
40.3887,50785
40.3944,51306
40.4001,50840
40.4059,49100
40.4116,49990
40.4173,47904
40.423,49206
40.4288,46949
40.4345,50219
40.4402,49268
40.4459,50349
40.4516,51444
40.4574,47261
40.4631,52039
40.4688,48353
40.4745,51540
40.4803,51236
40.486,49877
40.4917,48902
40.4974,51202
40.5031,52015
40.5089,52227
40.5146,56976
40.5203,55723
40.526,52986
40.5318,54581
40.5375,54503
40.5432,55408
40.5489,53627
40.5546,53241
40.5604,52805
40.5661,52942
40.5718,56011
40.5775,54485
40.5833,53184
40.589,55447
40.5947,54841
40.6004,55346
40.6061,55715
40.6119,57576
40.6176,57732
40.6233,58918
40.629,58279
40.6347,58254
40.6405,58249
40.6462,58394
40.6519,57917
40.6576,59346
40.6634,60379
40.6691,59932
40.6748,61774
40.6805,62161
40.6862,61341
40.692,57434
40.6977,59966
40.7034,61040
40.7091,61856
40.7148,60882
40.7206,62478
40.7263,62088
40.732,60062
40.7377,63159
40.7435,62220
40.7492,62340
40.7549,67106
40.7606,66398
40.7664,64137
40.7721,60053
40.7778,66780
40.7835,66127
40.7892,67443
40.795,68616
40.8007,68760
40.8064,76650
40.8121,75911
40.8179,76087
40.8236,78181
40.8293,72959
40.835,74182
40.8407,74541
40.8465,73552
40.8522,72086
40.8579,72859
40.8636,71481
40.8694,77518
40.8751,72003
40.8808,72595
40.8865,77006
40.8922,73430
40.898,74072
40.9037,72567
40.9094,72514
40.9151,74750
40.9209,73197
40.9266,75923
40.9323,71364
40.938,73359
40.9437,75904
40.9494,75773
40.9552,78951
40.9609,77877
40.9666,80460
40.9723,80330
40.9781,79837
40.9838,76060
40.9895,81447
40.9952,77127
41.001,78236
41.0067,81869
41.0124,80589
41.0181,82780
41.0238,81669
41.0296,82916
41.0353,84071
41.041,83810
41.0467,82882
41.0525,83537
41.0582,85450
41.0639,86464
41.0696,86296
41.0753,87979
41.0811,93233
41.0868,99247
41.0925,99730
41.0982,96506
41.104,95401
41.1097,92683
41.1154,94271
41.1211,96872
41.1268,95530
41.1326,98239
41.1383,95771
41.144,99696
41.1497,95251
41.1555,98293
41.1612,103170
41.1669,100051
41.1726,100458
41.1783,100648
41.184,96884
41.1898,99516
41.1955,104053
41.2012,100220
41.2069,100414
41.2127,102885
41.2184,99774
41.2241,98753
41.2298,100552
41.2356,101785
41.2413,107562
41.247,98407
41.2527,98448
41.2585,101775
41.2642,100875
41.2699,102122
41.2756,104431
41.2813,102901
41.2871,105022
41.2928,105386
41.2985,107703
41.3042,105017
41.3099,108921
41.3157,103868
41.3214,109242
41.3271,109072
41.3328,111698
41.3386,108211
41.3443,114101
41.35,112821
41.3557,115160
41.3614,117830
41.3672,115710
41.3729,115264
41.3786,116155
41.3843,114506
41.3901,113976
41.3958,116950
41.4015,115625
41.4072,118880
41.4129,115058
41.4187,115586
41.4244,119416
41.4301,116841
41.4358,119153
41.4415,117731
41.4473,115907
41.453,122301
41.4587,123390
41.4644,125327
41.4702,129594
41.4759,125365
41.4816,124705
41.4873,124065
41.4931,125659
41.4988,127013
41.5045,127722
41.5102,127069
41.5159,127085
41.5217,131666
41.5274,135263
41.5331,133765
41.5388,137667
41.5446,133747
41.5503,136982
41.556,131618
41.5617,137522
41.5674,140751
41.5732,152385
41.5789,169447
41.5846,180545
41.5903,183444
41.5961,164569
41.6018,148959
41.6075,145783
41.6132,141870
41.6189,146806
41.6247,156921
41.6304,167379
41.6361,170926
41.6418,166046
41.6475,159602
41.6533,158830
41.659,160892
41.6647,158149
41.6704,161977
41.6762,170551
41.6819,178886
41.6876,176989
41.6933,168034
41.699,161155
41.7048,161460
41.7105,154758
41.7162,156381
41.7219,151721
41.7277,152439
41.7334,154264
41.7391,156654
41.7448,159308
41.7505,156886
41.7563,161507
41.762,161845
41.7677,164185
41.7734,161904
41.7792,164876
41.7849,167688
41.7906,166699
41.7963,166377
41.802,167030
41.8078,169934
41.8135,175869
41.8192,183208
41.8249,179708
41.8306,175483
41.8364,170640
41.8421,175188
41.8478,181919
41.8535,187766
41.8593,173591
41.865,168628
41.8707,168375
41.8764,170299
41.8822,173848
41.8879,173906
41.8936,180868
41.8993,175073
41.905,172208
41.9108,174396
41.9165,167931
41.9222,173710
41.9279,169660
41.9337,173654
41.9394,167725
41.9451,174642
41.9508,175564
41.9565,174710
41.9623,173998
41.968,175209
41.9737,175120
41.9794,177031
41.9851,179710
41.9909,176418
41.9966,175095
42.0023,178045
42.008,177501
42.0138,176183
42.0195,181679
42.0252,184218
42.0309,183201
42.0366,188296
42.0424,188921
42.0481,192461
42.0538,186692
42.0595,189280
42.0652,189220
42.071,185861
42.0767,190006
42.0824,187458
42.0881,187532
42.0939,188472
42.0996,190462
42.1053,191369
42.111,191830
42.1168,194246
42.1225,186408
42.1282,195661
42.1339,196176
42.1396,194235
42.1454,196056
42.1511,193488
42.1568,195359
42.1625,200492
42.1683,204843
42.174,200483
42.1797,203050
42.1854,199186
42.1911,203174
42.1969,200045
42.2026,197772
42.2083,204663
42.214,207738
42.2198,216926
42.2255,226423
42.2312,241259
42.2369,238125
42.2426,233808
42.2484,226061
42.2541,220437
42.2598,215007
42.2655,214405
42.2713,215665
42.277,210358
42.2827,213907
42.2884,217610
42.2941,213024
42.2998,216475
42.3056,219339
42.3113,218718
42.317,219060
42.3227,228487
42.3285,222971
42.3342,222408
42.3399,219518
42.3456,221715
42.3514,222994
42.3571,218368
42.3628,221071
42.3685,223528
42.3742,219531
42.38,225847
42.3857,223686
42.3914,225398
42.3971,222524
42.4029,222079
42.4086,227452
42.4143,228929
42.42,225522
42.4257,224377
42.4315,222449
42.4372,230707
42.4429,226445
42.4486,223583
42.4544,228565
42.4601,230963
42.4658,229157
42.4715,228100
42.4772,230502
42.483,232834
42.4887,230904
42.4944,229416
42.5001,235488
42.5059,236752
42.5116,241027
42.5173,243381
42.523,241106
42.5287,233764
42.5345,237968
42.5402,237339
42.5459,241023
42.5516,237151
42.5574,242616
42.5631,237398
42.5688,245593
42.5745,242390
42.5802,247781
42.586,255018
42.5917,248144
42.5974,255848
42.6031,246683
42.6089,243128
42.6146,251666
42.6203,246628
42.626,247585
42.6317,251041
42.6375,252768
42.6432,247308
42.6489,247231
42.6546,244948
42.6604,249973
42.6661,254536
42.6718,257125
42.6775,260346
42.6832,264821
42.689,260247
42.6947,259672
42.7004,259093
42.7061,255490
42.7118,258225
42.7176,256969
42.7233,256715
42.729,260591
42.7347,256703
42.7405,257512
42.7462,251546
42.7519,259236
42.7576,258895
42.7633,261341
42.7691,256607
42.7748,259395
42.7805,265675
42.7862,262239
42.792,275433
42.7977,284854
42.8034,323154
42.8091,419085
42.8148,500438
42.8206,497332
42.8263,413999
42.832,351931
42.8377,324935
42.8435,316517
42.8492,308117
42.8549,303970
42.8606,296551
42.8663,291237
42.8721,290720
42.8778,288212
42.8835,293411
42.8892,310168
42.895,331309
42.9007,347494
42.9064,351662
42.9121,332452
42.9178,318698
42.9235,312255
42.9293,304545
42.935,308985
42.9407,305106
42.9464,306770
42.9522,298139
42.9579,294735
42.9636,295891
42.9693,294830
42.9751,301396
42.9808,292861
42.9865,289875
42.9922,295238
42.998,288526
43.0037,287929
43.0094,291608
43.0151,290430
43.0208,292443
43.0266,292828
43.0323,293057
43.038,297026
43.0437,294486
43.0494,290286
43.0552,287395
43.0609,291857
43.0666,293016
43.0723,289361
43.0781,295788
43.0838,286743
43.0895,289035
43.0952,287750
43.1009,288221
43.1067,292857
43.1124,294204
43.1181,288068
43.1238,293774
43.1296,290671
43.1353,288298
43.141,293421
43.1467,290619
43.1524,295881
43.1582,294091
43.1639,293179
43.1696,295296
43.1753,304155
43.181,323304
43.1868,350654
43.1925,354473
43.1982,348627
43.2039,331381
43.2097,317071
43.2154,309639
43.2211,308515
43.2268,312413
43.2326,302000
43.2383,299498
43.244,302928
43.2497,301990
43.2554,299221
43.2612,301383
43.2669,311474
43.2726,303660
43.2783,316015
43.2841,364533
43.2898,459062
43.2955,556859
43.3012,599535
43.3069,548099
43.3127,474454
43.3184,434557
43.3241,418098
43.3298,397485
43.3356,376534
43.3413,357498
43.347,349540
43.3527,341191
43.3584,336794
43.3642,335009
43.3699,326647
43.3756,327134
43.3813,325389
43.387,321469
43.3928,326251
43.3985,322984
43.4042,324516
43.4099,321100
43.4156,318871
43.4214,310719
43.4271,315296
43.4328,314969
43.4385,318273
43.4443,317310
43.45,310292
43.4557,313823
43.4614,311540
43.4672,308689
43.4729,306311
43.4786,316505
43.4843,308171
43.49,306348
43.4958,307361
43.5015,307180
43.5072,309569
43.5129,311416
43.5187,307526
43.5244,328847
43.5301,355022
43.5358,418174
43.5415,513452
43.5473,659942
43.553,776240
43.5587,774089
43.5644,646587
43.5702,517355
43.5759,442493
43.5816,412169
43.5873,393476
43.593,372621
43.5988,363155
43.6045,354962
43.6102,344690
43.6159,339975
43.6217,342085
43.6274,338957
43.6331,331105
43.6388,332654
43.6445,331937
43.6503,331874
43.656,323726
43.6617,324905
43.6674,326311
43.6732,318277
43.6789,317426
43.6846,323091
43.6903,318646
43.696,315778
43.7018,316928
43.7075,323918
43.7132,315993
43.7189,318874
43.7246,320547
43.7304,310792
43.7361,314855
43.7418,310975
43.7475,317637
43.7533,310982
43.759,312579
43.7647,312096
43.7704,313678
43.7761,314888
43.7819,311878
43.7876,317600
43.7933,307012
43.799,308943
43.8048,309212
43.8105,301018
43.8162,307352
43.8219,306792
43.8276,303035
43.8334,305264
43.8391,311491
43.8448,302261
43.8505,307937
43.8563,336562
43.862,408688
43.8677,525171
43.8734,678432
43.8791,743727
43.8849,680470
43.8906,568123
43.8963,475742
43.902,416911
43.9078,396751
43.9135,405708
43.9192,464244
43.9249,611713
43.9306,847337
43.9364,1010071
43.9421,986350
43.9478,816128
43.9535,640573
43.9593,527188
43.965,468187
43.9707,426874
43.9764,411181
43.9821,387545
43.9879,392745
43.9936,402028
43.9993,426897
44.005,465975
44.0108,477630
44.0165,469029
44.0222,439578
44.0279,414474
44.0336,395795
44.0393,376119
44.0451,363963
44.0508,354922
44.0565,352053
44.0622,344522
44.068,340151
44.0737,337551
44.0794,335060
44.0851,326421
44.0909,328684
44.0966,327552
44.1023,321441
44.108,320708
44.1137,316893
44.1195,318901
44.1252,318872
44.1309,321747
44.1366,326074
44.1424,328903
44.1481,324105
44.1538,320691
44.1595,323429
44.1652,312734
44.171,309135
44.1767,305093
44.1824,310367
44.1881,310692
44.1939,306562
44.1996,308723
44.2053,307259
44.211,304957
44.2167,302299
44.2225,306056
44.2282,310555
44.2339,308715
44.2396,305287
44.2454,311354
44.2511,305668
44.2568,308523
44.2625,307542
44.2682,316113
44.2739,332132
44.2797,367549
44.2854,379149
44.2911,394916
44.2968,374419
44.3026,357694
44.3083,339747
44.314,329131
44.3197,330840
44.3255,320240
44.3312,322414
44.3369,323434
44.3426,326969
44.3484,337327
44.3541,352314
44.3598,371822
44.3655,387589
44.3712,390236
44.377,374030
44.3827,359716
44.3884,352504
44.3941,353931
44.3998,339061
44.4056,350904
44.4113,350013
44.417,344241
44.4227,334142
44.4285,331955
44.4342,324605
44.4399,322455
44.4456,325625
44.4513,332406
44.4571,342952
44.4628,340789
44.4685,342578
44.4742,338866
44.48,338087
44.4857,342422
44.4914,351441
44.4971,348795
44.5028,342461
44.5086,339106
44.5143,348119
44.52,359147
44.5257,372364
44.5315,390688
44.5372,393526
44.5429,378695
44.5486,361938
44.5543,347076
44.5601,333692
44.5658,330121
44.5715,325241
44.5772,318151
44.583,314628
44.5887,319874
44.5944,308859
44.6001,320840
44.6058,315312
44.6116,325192
44.6173,324069
44.623,327097
44.6287,330185
44.6345,316166
44.6402,315193
44.6459,309568
44.6516,306101
44.6573,299986
44.6631,301538
44.6688,300512
44.6745,300674
44.6802,298800
44.686,294642
44.6917,290114
44.6974,290706
44.7031,290469
44.7088,293083
44.7146,285142
44.7203,295245
44.726,283037
44.7317,285709
44.7375,287257
44.7432,287273
44.7489,288601
44.7546,285350
44.7603,289146
44.7661,286321
44.7718,282872
44.7775,281746
44.7832,280893
44.7889,280648
44.7947,288167
44.8004,285517
44.8061,283241
44.8118,277508
44.8176,280560
44.8233,275761
44.829,274660
44.8347,277133
44.8404,279394
44.8462,279858
44.8519,279953
44.8576,276611
44.8633,276715
44.8691,277949
44.8748,277167
44.8805,279906
44.8862,274972
44.8919,278402
44.8977,274002
44.9034,277065
44.9091,276991
44.9148,282520
44.9205,286993
44.9263,284394
44.932,281673
44.9377,282740
44.9434,279838
44.9492,279796
44.9549,281686
44.9606,282464
44.9663,280265
44.9721,279255
44.9778,282915
44.9835,280025
44.9892,283580
44.9949,280692
