D:\MassHunter\GCMS\1\data\Stachys_bullata\FINAL_RUNS\SMM108.D 18 Mar 20  07:50 am
Start of data points
3.09265,20195
3.09837,20010
3.1041,16705
3.10982,20971
3.11553,19933
3.12125,19801
3.12698,21393
3.1327,19456
3.13842,19371
3.14415,19418
3.14987,17376
3.15558,14984
3.16132,14407
3.16703,15349
3.17275,18026
3.17848,17958
3.1842,17324
3.18992,16213
3.19565,16433
3.20137,13175
3.20708,16823
3.21282,14860
3.21853,15984
3.22425,14880
3.22998,13721
3.2357,14146
3.24142,13970
3.24715,13367
3.25287,14399
3.25858,14978
3.26432,12912
3.27003,13490
3.27575,14981
3.28148,13079
3.2872,10945
3.29292,10988
3.29863,10765
3.30437,10075
3.31008,11628
3.3158,10335
3.32153,11527
3.32725,9467
3.33297,8608
3.3387,7773
3.34442,8566
3.35013,7847
3.35587,7611
3.36158,7358
3.3673,6827
3.37303,7304
3.37875,7436
3.38447,7534
3.3902,6964
3.39592,7366
3.40163,7180
3.40737,7533
3.41308,5621
3.4188,5616
3.42453,5513
3.43025,5892
3.43597,5142
3.4417,5563
3.44742,6152
3.45313,7027
3.45887,6688
3.46458,6823
3.4703,4563
3.47602,4214
3.48175,4292
3.48747,4973
3.49318,4140
3.49892,4212
3.50463,4548
3.51035,4462
3.51608,3882
3.5218,4553
3.52752,4726
3.53325,4568
3.53897,4950
3.54468,5010
3.55042,5845
3.55613,5404
3.56185,5579
3.56758,5524
3.5733,5703
3.57902,5244
3.58475,4572
3.59047,4778
3.59618,5248
3.60192,6169
3.60763,5642
3.61335,6505
3.61908,5197
3.6248,5300
3.63052,5529
3.63623,3902
3.64197,4009
3.64768,3568
3.6534,3873
3.65913,4087
3.66485,4144
3.67057,3473
3.6763,3573
3.68202,3492
3.68773,3500
3.69347,3360
3.69918,3192
3.7049,3451
3.71063,3323
3.71635,3605
3.72207,3458
3.7278,3254
3.73352,3260
3.73923,3628
3.74497,3880
3.75068,3760
3.7564,2863
3.76213,3271
3.76785,2997
3.77357,2980
3.7793,3921
3.78502,3094
3.79073,2969
3.79647,3554
3.80218,3450
3.8079,2592
3.81362,3925
3.81935,3221
3.82507,3358
3.83078,3480
3.83652,3466
3.84223,2849
3.84795,3600
3.85368,2764
3.8594,3235
3.86512,2992
3.87085,3001
3.87657,3300
3.88228,3043
3.88802,3301
3.89373,3401
3.89945,3012
3.90518,2927
3.9109,3522
3.91662,3079
3.92235,3214
3.92807,3247
3.93378,2994
3.93952,3140
3.94523,3374
3.95095,3350
3.95668,3005
3.9624,2788
3.96812,3750
3.97385,4775
3.97957,6808
3.98528,9339
3.991,13739
3.99673,15452
4.00245,14835
4.00817,13022
4.0139,10005
4.01962,8362
4.02533,8139
4.03107,6546
4.03678,5761
4.0425,5210
4.04823,4312
4.05395,4422
4.05967,4082
4.0654,3884
4.07112,3620
4.07683,3116
4.08257,3663
4.08828,3507
4.094,3527
4.09973,3305
4.10545,2657
4.11117,3412
4.1169,2929
4.12262,3671
4.12833,3964
4.13407,3335
4.13978,3744
4.1455,3124
4.15122,3318
4.15695,2903
4.16267,3127
4.16838,2921
4.17412,3346
4.17983,2619
4.18555,3384
4.19128,2849
4.197,2977
4.20272,2714
4.20845,3055
4.21417,2973
4.21988,3282
4.22562,2861
4.23133,2842
4.23705,2610
4.24278,3049
4.2485,2715
4.25422,3173
4.25995,3376
4.26567,3370
4.27138,2632
4.27712,2785
4.28283,2682
4.28855,2731
4.29428,2851
4.3,2638
4.30572,2598
4.31145,3108
4.31717,2812
4.32288,2389
4.3286,3176
4.33433,2843
4.34005,2757
4.34577,2265
4.3515,2965
4.35722,2997
4.36293,3208
4.36867,2862
4.37438,3320
4.3801,3436
4.38583,3190
4.39155,2626
4.39727,2862
4.403,2859
4.40872,2733
4.41443,3218
4.42017,2855
4.42588,3008
4.4316,2774
4.43733,2890
4.44305,3004
4.44877,3057
4.4545,3190
4.46022,2863
4.46593,3416
4.47167,3198
4.47738,3269
4.4831,3746
4.48883,3800
4.49455,3610
4.50027,3741
4.50598,3911
4.51172,3827
4.51743,3677
4.52315,4222
4.52888,4989
4.5346,4318
4.54032,4541
4.54605,4518
4.55177,4097
4.55748,3964
4.56322,3418
4.56893,4514
4.57465,4694
4.58038,4189
4.5861,4592
4.59182,4159
4.59755,4226
4.60327,3662
4.60898,3931
4.61472,3423
4.62043,3502
4.62615,2970
4.63188,4413
4.6376,4037
4.64332,3475
4.64905,2230
4.65477,2680
4.66048,2240
4.6662,3102
4.67193,2974
4.67765,2606
4.68337,2858
4.6891,3208
4.69482,3145
4.70053,5134
4.70627,11138
4.71198,15256
4.7177,22885
4.72343,27408
4.72915,36434
4.73487,37946
4.7406,35288
4.74632,31540
4.75203,25782
4.75777,20053
4.76348,15751
4.7692,13601
4.77493,10521
4.78065,8647
4.78637,8413
4.7921,7443
4.79782,7206
4.80353,5456
4.80927,4724
4.81498,4870
4.8207,4688
4.82643,5635
4.83215,5574
4.83787,2767
4.84358,3340
4.84932,2312
4.85503,2599
4.86075,2944
4.86648,2158
4.8722,1967
4.87792,1921
4.88365,2208
4.88937,2561
4.89508,2093
4.90082,2503
4.90653,2283
4.91225,2309
4.91798,2567
4.9237,2312
4.92942,2358
4.93515,2586
4.94087,2407
4.94658,2999
4.95232,3035
4.95803,3451
4.96375,4145
4.96948,5219
4.9752,4916
4.98092,5231
4.98665,4912
4.99237,5245
4.99808,4727
5.00382,4582
5.00953,3627
5.01525,3533
5.02097,3299
5.0267,2833
5.03242,2043
5.03813,1937
5.04387,1954
5.04958,1698
5.0553,1714
5.06103,1956
5.06675,2092
5.07247,2154
5.0782,1758
5.08392,1972
5.08963,2158
5.09537,1787
5.10108,1800
5.1068,2047
5.11253,1803
5.11825,1917
5.12397,2271
5.1297,2049
5.13542,1862
5.14113,2094
5.14687,2464
5.15258,2054
5.1583,1973
5.16403,1905
5.16975,1851
5.17547,2235
5.1812,1887
5.18692,1967
5.19263,2192
5.19835,1961
5.20408,1823
5.2098,1998
5.21552,1948
5.22125,1875
5.22697,1819
5.23268,2064
5.23842,2008
5.24413,2131
5.24985,2556
5.25558,2871
5.2613,3495
5.26702,3023
5.27275,3123
5.27847,2944
5.28418,2588
5.28992,2217
5.29563,2512
5.30135,2568
5.30708,2108
5.3128,2069
5.31852,2069
5.32425,2127
5.32997,2381
5.33568,2639
5.34142,3063
5.34713,2194
5.35285,2106
5.35857,2214
5.3643,2090
5.37002,2153
5.37573,1978
5.38147,1988
5.38718,1965
5.3929,2021
5.39863,2172
5.40435,2201
5.41007,2133
5.4158,1941
5.42152,2334
5.42723,2381
5.43297,2114
5.43868,1873
5.4444,2064
5.45013,2169
5.45585,2709
5.46157,2319
5.4673,2713
5.47302,2498
5.47873,2473
5.48447,2932
5.49018,2513
5.4959,3118
5.50163,2771
5.50735,2602
5.51307,2569
5.5188,2523
5.52452,3076
5.53023,2271
5.53595,2827
5.54168,2514
5.5474,2975
5.55312,2868
5.55885,3007
5.56457,3320
5.57028,2852
5.57602,6094
5.58173,9614
5.58745,18615
5.59318,23643
5.5989,25135
5.60462,23798
5.61035,21025
5.61607,16201
5.62178,11505
5.62752,10047
5.63323,8668
5.63895,6358
5.64468,6341
5.6504,5380
5.65612,4444
5.66185,3477
5.66757,3554
5.67328,3577
5.67902,4165
5.68473,3363
5.69045,3116
5.69617,3111
5.7019,3440
5.70762,3081
5.71333,3246
5.71907,2773
5.72478,3119
5.7305,2857
5.73623,2317
5.74195,1719
5.74767,2839
5.7534,3056
5.75912,2728
5.76483,2510
5.77057,3828
5.77628,3371
5.782,3951
5.78773,2900
5.79345,2671
5.79917,3936
5.8049,3567
5.81062,2343
5.81633,3105
5.82207,3325
5.82778,2575
5.8335,3250
5.83923,2920
5.84495,3355
5.85067,3281
5.8564,3293
5.86212,4006
5.86783,4405
5.87355,3520
5.87928,4649
5.885,4551
5.89072,3803
5.89645,4706
5.90217,4176
5.90788,3975
5.91362,3348
5.91933,3571
5.92505,3231
5.93078,3367
5.9365,3079
5.94222,2926
5.94795,2562
5.95367,3511
5.95938,2822
5.96512,3120
5.97083,3136
5.97655,3066
5.98228,3869
5.988,3251
5.99372,3365
5.99945,3016
6.00517,3530
6.01088,3806
6.01662,3131
6.02233,3010
6.02805,2589
6.03378,3077
6.0395,3077
6.04522,3213
6.05093,3649
6.05667,2793
6.06238,2419
6.0681,2703
6.07383,2719
6.07955,2617
6.08527,2770
6.091,2710
6.09672,2391
6.10243,2755
6.10817,1406
6.11388,1408
6.1196,1880
6.12533,1220
6.13105,2242
6.13677,2035
6.1425,2135
6.14822,2596
6.15393,2403
6.15967,2564
6.16538,2636
6.1711,3172
6.17683,2685
6.18255,2478
6.18827,2826
6.194,2814
6.19972,2486
6.20543,2647
6.21117,2740
6.21688,1343
6.2226,1592
6.22832,2261
6.23405,2138
6.23977,2379
6.24548,2750
6.25122,2528
6.25693,2358
6.26265,2582
6.26838,3343
6.2741,2611
6.27982,2636
6.28555,2395
6.29127,2437
6.29698,2311
6.30272,2418
6.30843,2467
6.31415,2601
6.31988,2443
6.3256,2643
6.33132,2526
6.33705,2211
6.34277,2167
6.34848,3761
6.35422,4406
6.35993,4950
6.36565,4346
6.37138,4360
6.3771,3861
6.38282,2617
6.38855,1564
6.39427,1731
6.39998,2583
6.4057,6512
6.41143,8832
6.41715,8847
6.42287,8705
6.4286,8436
6.43432,7060
6.44003,6214
6.44577,6204
6.45148,6156
6.4572,4847
6.46293,3980
6.46865,4157
6.47437,4020
6.4801,4271
6.48582,1867
6.49153,1266
6.49727,2520
6.50298,2378
6.5087,2667
6.51443,2346
6.52015,2561
6.52587,2428
6.5316,2793
6.53732,2325
6.54303,3118
6.54877,2879
6.55448,2796
6.5602,2800
6.56592,1191
6.57165,1186
6.57737,1241
6.58308,1368
6.58882,1426
6.59453,1074
6.60025,1289
6.60598,981
6.6117,1022
6.61742,1288
6.62315,1210
6.62887,810
6.63458,1076
6.64032,986
6.64603,1321
6.65175,1103
6.65748,1203
6.6632,832
6.66892,873
6.67465,1541
6.68037,1082
6.68608,1274
6.69182,1249
6.69753,1027
6.70325,1285
6.70898,1297
6.7147,1333
6.72042,1225
6.72615,1334
6.73187,794
6.73758,1042
6.7433,1009
6.74903,1003
6.75475,1235
6.76047,902
6.7662,1363
6.77192,1660
6.77763,1816
6.78337,1534
6.78908,1683
6.7948,1244
6.80053,1089
6.80625,1178
6.81197,1295
6.8177,933
6.82342,1459
6.82913,901
6.83487,1337
6.84058,1271
6.8463,904
6.85203,1125
6.85775,1232
6.86347,1214
6.8692,1334
6.87492,1243
6.88063,1286
6.88637,1147
6.89208,1106
6.8978,1310
6.90352,1454
6.90925,1086
6.91497,1239
6.92068,1262
6.92642,1515
6.93213,1474
6.93785,1590
6.94358,1257
6.9493,1673
6.95502,1467
6.96075,1774
6.96647,1528
6.97218,1748
6.97792,1884
6.98363,1710
6.98935,1425
6.99508,1789
7.0008,1309
7.00652,1696
7.01225,1779
7.01797,1631
7.02368,1837
7.02942,1372
7.03513,2209
7.04085,1811
7.04658,1702
7.0523,2037
7.05802,1738
7.06375,1503
7.06947,1800
7.07518,2100
7.0809,1902
7.08663,1681
7.09235,1966
7.09807,2317
7.1038,2610
7.10952,2316
7.11523,1724
7.12097,1960
7.12668,2057
7.1324,2288
7.13813,2435
7.14385,1832
7.14957,2614
7.1553,1802
7.16102,1417
7.16673,1344
7.17247,1194
7.17818,1090
7.1839,1161
7.18963,1064
7.19535,1476
7.20107,1578
7.2068,1213
7.21252,1628
7.21823,1716
7.22397,1925
7.22968,2013
7.2354,1742
7.24113,1931
7.24685,1950
7.25257,2317
7.25828,2201
7.26402,1773
7.26973,1834
7.27545,1932
7.28118,2081
7.2869,2278
7.29262,1225
7.29835,1599
7.30407,2077
7.30978,2479
7.31552,1439
7.32123,1302
7.32695,1471
7.33268,2068
7.3384,1928
7.34412,2383
7.34985,2205
7.35557,2851
7.36128,2722
7.36702,2110
7.37273,1039
7.37845,1780
7.38418,1859
7.3899,2181
7.39562,1894
7.40135,1726
7.40707,2385
7.41278,2760
7.41852,2323
7.42423,1558
7.42995,2205
7.43567,2310
7.4414,1266
7.44712,2724
7.45283,2602
7.45857,2831
7.46428,1950
7.47,2238
7.47573,1851
7.48145,2362
7.48717,2316
7.4929,1565
7.49862,1672
7.50433,1798
7.51007,2172
7.51578,1864
7.5215,1914
7.52723,2411
7.53295,1973
7.53867,2369
7.5444,2178
7.55012,1929
7.55583,1844
7.56157,1889
7.56728,2407
7.573,2211
7.57873,2938
7.58445,2613
7.59017,2653
7.59588,2586
7.60162,2141
7.60733,2234
7.61305,2551
7.61878,2642
7.6245,2404
7.63022,2678
7.63595,2200
7.64167,2782
7.64738,2197
7.65312,2198
7.65883,2680
7.66455,2929
7.67028,2704
7.676,2089
7.68172,2382
7.68745,2336
7.69317,2490
7.69888,2102
7.70462,3415
7.71033,3274
7.71605,2592
7.72178,2599
7.7275,2202
7.73322,3394
7.73895,3014
7.74467,2871
7.75038,3011
7.75612,2310
7.76183,2721
7.76755,2002
7.77327,2644
7.779,2898
7.78472,2499
7.79043,2387
7.79617,2521
7.80188,2565
7.8076,2558
7.81333,2169
7.81905,2243
7.82477,2893
7.8305,2845
7.83622,2239
7.84193,2453
7.84767,2487
7.85338,2410
7.8591,2296
7.86483,2271
7.87055,3071
7.87627,2748
7.882,2225
7.88772,2487
7.89343,2256
7.89917,2711
7.90488,2505
7.9106,2484
7.91633,2493
7.92205,2933
7.92777,2499
7.9335,1996
7.93922,2056
7.94493,2504
7.95065,2303
7.95638,2823
7.9621,2673
7.96782,1925
7.97355,3226
7.97927,2940
7.98498,2937
7.99072,3125
7.99643,2646
8.00215,2726
8.00788,2468
8.0136,3083
8.01932,4736
8.02505,6707
8.03077,9383
8.03648,12205
8.04222,14483
8.04793,13008
8.05365,13404
8.05938,11592
8.0651,8001
8.07082,6611
8.07655,5241
8.08227,3656
8.08798,3643
8.09372,2926
8.09943,1660
8.10515,2202
8.11087,2424
8.1166,2144
8.12232,2203
8.12803,2238
8.13377,2482
8.13948,2649
8.1452,2665
8.15093,2279
8.15665,2544
8.16237,2254
8.1681,2542
8.17382,3072
8.17953,2641
8.18527,2751
8.19098,2900
8.1967,2457
8.20243,2712
8.20815,2548
8.21387,2352
8.2196,1796
8.22532,1837
8.23103,1921
8.23677,1977
8.24248,2346
8.2482,2375
8.25393,2181
8.25965,1901
8.26537,2154
8.2711,2721
8.27682,3004
8.28253,2058
8.28825,3517
8.29398,3120
8.2997,3203
8.30542,3127
8.31115,2753
8.31687,2377
8.32258,2184
8.32832,1931
8.33403,2163
8.33975,2048
8.34548,2317
8.3512,2180
8.35692,2914
8.36265,2802
8.36837,2485
8.37408,2537
8.37982,2720
8.38553,2485
8.39125,2026
8.39698,2033
8.4027,2428
8.40842,2421
8.41415,2822
8.41987,2039
8.42558,2256
8.43132,2218
8.43703,2028
8.44275,2169
8.44848,2042
8.4542,1933
8.45992,2200
8.46563,2512
8.47137,2297
8.47708,2765
8.4828,3499
8.48853,4550
8.49425,4271
8.49997,6080
8.5057,6917
8.51142,6938
8.51713,6846
8.52287,6649
8.52858,4696
8.5343,4824
8.54003,4132
8.54575,3294
8.55147,2370
8.5572,2637
8.56292,2813
8.56863,3209
8.57437,1975
8.58008,3278
8.5858,2232
8.59153,2696
8.59725,2426
8.60297,2051
8.6087,2330
8.61442,1723
8.62013,1874
8.62587,2039
8.63158,2954
8.6373,3309
8.64302,9283
8.64875,18694
8.65447,45886
8.66018,92746
8.66592,169153
8.67163,262207
8.67735,349775
8.68308,408757
8.6888,415060
8.69452,392768
8.70025,321156
8.70597,250822
8.71168,178301
8.71742,122017
8.72313,79624
8.72885,51806
8.73458,31048
8.7403,20264
8.74602,13986
8.75175,8447
8.75747,5060
8.76318,4758
8.76892,3774
8.77463,2624
8.78035,2434
8.78608,2746
8.7918,2284
8.79752,2314
8.80323,2391
8.80897,2491
8.81468,2522
8.8204,2828
8.82613,2437
8.83185,2073
8.83757,2652
8.8433,2559
8.84902,2193
8.85473,2679
8.86047,2353
8.86618,2109
8.8719,2627
8.87763,2237
8.88335,1912
8.88907,2590
8.8948,2523
8.90052,2329
8.90623,1864
8.91197,2188
8.91768,1916
8.9234,2092
8.92913,2398
8.93485,2293
8.94057,1912
8.9463,2180
8.95202,2005
8.95773,2848
8.96347,4664
8.96918,4612
8.9749,5208
8.98062,5463
8.98635,4435
8.99207,3733
8.99778,3317
9.00352,4065
9.00923,3500
9.01495,3085
9.02068,2787
9.0264,3336
9.03212,2776
9.03785,2490
9.04357,2773
9.04928,2193
9.05502,1997
9.06073,2501
9.06645,2442
9.07218,2250
9.0779,2543
9.08362,2152
9.08935,2362
9.09507,2300
9.10078,1900
9.10652,1679
9.11223,2248
9.11795,2356
9.12368,3493
9.1294,4554
9.13512,4749
9.14083,5750
9.14657,5991
9.15228,5887
9.158,5287
9.16373,5023
9.16945,3913
9.17517,2959
9.1809,2553
9.18662,2245
9.19233,1836
9.19807,1856
9.20378,2122
9.2095,1970
9.21523,2619
9.22095,2220
9.22667,2054
9.2324,2331
9.23812,3001
9.24383,2121
9.24957,3072
9.25528,3328
9.261,2602
9.26673,3178
9.27245,2945
9.27817,2627
9.2839,2171
9.28962,2266
9.29533,1714
9.30107,2512
9.30678,1744
9.3125,1673
9.31822,1704
9.32395,1742
9.32967,1926
9.33538,1631
9.34112,1719
9.34683,2021
9.35255,1898
9.35828,2001
9.364,2099
9.36972,2400
9.37545,1826
9.38117,1815
9.38688,2609
9.39262,2404
9.39833,3335
9.40405,2740
9.40978,2734
9.4155,2604
9.42122,2045
9.42695,2625
9.43267,2232
9.43838,2407
9.44412,2515
9.44983,1903
9.45555,1682
9.46128,2609
9.467,1703
9.47272,2205
9.47845,2239
9.48417,1942
9.48988,1970
9.4956,1808
9.50133,2048
9.50705,1982
9.51277,2964
9.5185,3424
9.52422,4435
9.52993,6335
9.53567,8648
9.54138,9147
9.5471,10700
9.55283,8995
9.55855,8662
9.56427,7451
9.57,5933
9.57572,4378
9.58143,4065
9.58717,4168
9.59288,3438
9.5986,2222
9.60433,2797
9.61005,2287
9.61577,2617
9.6215,2566
9.62722,2034
9.63293,2355
9.63867,1776
9.64438,1674
9.6501,1546
9.65583,2012
9.66155,2263
9.66727,2003
9.67298,1918
9.67872,1596
9.68443,1638
9.69015,1433
9.69588,1812
9.7016,1619
9.70732,1689
9.71305,1924
9.71877,1746
9.72448,2091
9.73022,1567
9.73593,1513
9.74165,1850
9.74738,1363
9.7531,1765
9.75882,1917
9.76455,1557
9.77027,1655
9.77598,1652
9.78172,1475
9.78743,2094
9.79315,1880
9.79888,1823
9.8046,2123
9.81032,1632
9.81605,1856
9.82177,1509
9.82748,1257
9.83322,1589
9.83893,1522
9.84465,1832
9.85037,2051
9.8561,2244
9.86182,3335
9.86753,4493
9.87327,6390
9.87898,5996
9.8847,6447
9.89043,5422
9.89615,4484
9.90187,4073
9.9076,2965
9.91332,2806
9.91903,2420
9.92477,2197
9.93048,1779
9.9362,1505
9.94193,1920
9.94765,2090
9.95337,1833
9.9591,2652
9.96482,3035
9.97053,4173
9.97627,5440
9.98198,6056
9.9877,6809
9.99343,7951
9.99915,7619
10.0049,7671
10.0106,12336
10.0163,24012
10.022,58633
10.0278,124961
10.0335,237809
10.0392,371302
10.0449,524552
10.0507,625933
10.0564,657483
10.0621,604421
10.0678,506920
10.0735,386831
10.0793,258199
10.085,170202
10.0907,100749
10.0964,59420
10.1022,32477
10.1079,19605
10.1136,11336
10.1193,6305
10.125,4488
10.1308,2634
10.1365,1801
10.1422,1918
10.1479,2317
10.1537,1697
10.1594,1450
10.1651,1962
10.1708,1894
10.1765,2746
10.1823,2509
10.188,2289
10.1937,2630
10.1994,2718
10.2051,2926
10.2109,3593
10.2166,6424
10.2223,11398
10.228,19378
10.2338,24394
10.2395,28017
10.2452,28606
10.2509,23664
10.2566,20262
10.2624,14053
10.2681,9148
10.2738,5492
10.2795,3636
10.2853,3422
10.291,2544
10.2967,2554
10.3024,2401
10.3081,2605
10.3139,1950
10.3196,1391
10.3253,2337
10.331,2184
10.3368,2792
10.3425,2257
10.3482,2377
10.3539,2469
10.3596,2086
10.3654,2428
10.3711,2460
10.3768,1844
10.3825,2593
10.3883,2317
10.394,2177
10.3997,1947
10.4054,2279
10.4111,2279
10.4169,2034
10.4226,1991
10.4283,2008
10.434,1630
10.4398,2899
10.4455,2440
10.4512,1680
10.4569,2756
10.4626,2220
10.4684,4232
10.4741,7819
10.4798,15908
10.4855,19959
10.4913,27326
10.497,26812
10.5027,23452
10.5084,20476
10.5141,15855
10.5199,11149
10.5256,9549
10.5313,7276
10.537,5876
10.5427,3943
10.5485,3720
10.5542,3226
10.5599,3797
10.5656,2654
10.5714,2101
10.5771,2327
10.5828,2923
10.5885,3877
10.5942,3493
10.6,4603
10.6057,5465
10.6114,6664
10.6171,6445
10.6229,6540
10.6286,5793
10.6343,4298
10.64,3034
10.6457,3352
10.6515,2771
10.6572,2559
10.6629,2919
10.6686,3791
10.6744,3868
10.6801,4617
10.6858,4040
10.6915,4023
10.6972,2798
10.703,3242
10.7087,2511
10.7144,2378
10.7201,1625
10.7259,2209
10.7316,4372
10.7373,5995
10.743,10068
10.7487,14576
10.7545,19304
10.7602,19615
10.7659,19791
10.7716,16433
10.7774,11923
10.7831,10030
10.7888,8088
10.7945,5545
10.8002,5227
10.806,3775
10.8117,4608
10.8174,3555
10.8231,2956
10.8289,2499
10.8346,2759
10.8403,2291
10.846,2440
10.8517,1838
10.8575,2175
10.8632,1186
10.8689,1408
10.8746,1827
10.8803,1727
10.8861,1484
10.8918,1512
10.8975,1870
10.9032,1524
10.909,1794
10.9147,2210
10.9204,1631
10.9261,2241
10.9318,2084
10.9376,2385
10.9433,2269
10.949,2161
10.9547,2267
10.9605,1645
10.9662,1542
10.9719,2214
10.9776,2346
10.9833,1683
10.9891,2833
10.9948,2315
11.0005,2521
11.0062,2918
11.012,3661
11.0177,2237
11.0234,3086
11.0291,2227
11.0348,2313
11.0406,1504
11.0463,2034
11.052,1588
11.0577,1242
11.0635,1386
11.0692,2029
11.0749,1440
11.0806,1434
11.0863,1186
11.0921,1697
11.0978,1467
11.1035,1271
11.1092,1391
11.115,1269
11.1207,1533
11.1264,1403
11.1321,1728
11.1378,1428
11.1436,1924
11.1493,1758
11.155,1771
11.1607,2154
11.1665,2289
11.1722,2209
11.1779,2054
11.1836,1962
11.1893,1211
11.1951,1279
11.2008,1532
11.2065,1486
11.2122,1952
11.2179,1092
11.2237,1622
11.2294,1375
11.2351,1455
11.2408,1485
11.2466,1469
11.2523,1961
11.258,1897
11.2637,1450
11.2694,1802
11.2752,1827
11.2809,1682
11.2866,1842
11.2923,1840
11.2981,1240
11.3038,1262
11.3095,1721
11.3152,1609
11.3209,1879
11.3267,1234
11.3324,2603
11.3381,2383
11.3438,1824
11.3496,1954
11.3553,2225
11.361,1876
11.3667,1808
11.3724,1898
11.3782,1806
11.3839,1926
11.3896,2074
11.3953,1438
11.4011,1478
11.4068,1985
11.4125,1948
11.4182,1166
11.4239,1196
11.4297,1280
11.4354,2192
11.4411,1709
11.4468,2066
11.4526,1221
11.4583,1370
11.464,1777
11.4697,1241
11.4754,2312
11.4812,2174
11.4869,2895
11.4926,3408
11.4983,4426
11.5041,5196
11.5098,5932
11.5155,5971
11.5212,4723
11.5269,5009
11.5327,3907
11.5384,2806
11.5441,2400
11.5498,2658
11.5555,2259
11.5613,2764
11.567,4532
11.5727,4366
11.5784,5014
11.5842,4037
11.5899,4326
11.5956,3490
11.6013,2854
11.607,2642
11.6128,3440
11.6185,4014
11.6242,3838
11.6299,5264
11.6357,6590
11.6414,5992
11.6471,5215
11.6528,4617
11.6585,3967
11.6643,3179
11.67,1991
11.6757,1563
11.6814,1899
11.6872,1216
11.6929,1203
11.6986,1838
11.7043,1692
11.71,1750
11.7158,2047
11.7215,1352
11.7272,1979
11.7329,2248
11.7387,4494
11.7444,7779
11.7501,12171
11.7558,16273
11.7615,20610
11.7673,24775
11.773,22599
11.7787,19743
11.7844,15336
11.7902,11606
11.7959,8505
11.8016,7041
11.8073,4608
11.813,2593
11.8188,2403
11.8245,2025
11.8302,2511
11.8359,2389
11.8417,1848
11.8474,2834
11.8531,2345
11.8588,1528
11.8645,1726
11.8703,1599
11.876,1918
11.8817,2206
11.8874,1820
11.8932,3711
11.8989,7451
11.9046,18348
11.9103,39597
11.916,72729
11.9218,107452
11.9275,137538
11.9332,151665
11.9389,147803
11.9446,127657
11.9504,97234
11.9561,76203
11.9618,50903
11.9675,34416
11.9733,25837
11.979,21441
11.9847,16391
11.9904,14885
11.9961,13331
12.0019,9514
12.0076,8954
12.0133,8019
12.019,7967
12.0248,7149
12.0305,6208
12.0362,5471
12.0419,5671
12.0476,4675
12.0534,4332
12.0591,4491
12.0648,4652
12.0705,4105
12.0763,4697
12.082,5601
12.0877,6159
12.0934,10759
12.0991,18605
12.1049,30346
12.1106,47653
12.1163,66482
12.122,78469
12.1278,81876
12.1335,73797
12.1392,57740
12.1449,38965
12.1506,23134
12.1564,13598
12.1621,8624
12.1678,5345
12.1735,4090
12.1793,2827
12.185,3658
12.1907,3264
12.1964,2282
12.2021,2526
12.2079,2213
12.2136,3777
12.2193,4840
12.225,5614
12.2308,7074
12.2365,9932
12.2422,10695
12.2479,9524
12.2536,9623
12.2594,6679
12.2651,5729
12.2708,4704
12.2765,3166
12.2822,2626
12.288,2692
12.2937,2431
12.2994,2258
12.3051,1819
12.3109,2275
12.3166,1987
12.3223,2176
12.328,2058
12.3337,2238
12.3395,2161
12.3452,2060
12.3509,2183
12.3566,2187
12.3624,2371
12.3681,1571
12.3738,2502
12.3795,2011
12.3852,1278
12.391,2138
12.3967,1327
12.4024,2159
12.4081,2298
12.4139,3057
12.4196,3204
12.4253,5041
12.431,6629
12.4367,7900
12.4425,6927
12.4482,8166
12.4539,9235
12.4596,6794
12.4654,5405
12.4711,3825
12.4768,3080
12.4825,2413
12.4882,1850
12.494,2832
12.4997,2002
12.5054,2209
12.5111,2637
12.5169,2230
12.5226,2255
12.5283,2525
12.534,1880
12.5397,1651
12.5455,1701
12.5512,1737
12.5569,1733
12.5626,1529
12.5684,2792
12.5741,1953
12.5798,4136
12.5855,4204
12.5912,4700
12.597,6099
12.6027,5742
12.6084,4372
12.6141,4177
12.6198,3637
12.6256,2791
12.6313,3059
12.637,2367
12.6427,2108
12.6485,2253
12.6542,2104
12.6599,1990
12.6656,2019
12.6713,1487
12.6771,1886
12.6828,1734
12.6885,1836
12.6942,2120
12.7,1814
12.7057,1333
12.7114,1781
12.7171,2101
12.7228,3112
12.7286,3292
12.7343,5924
12.74,6081
12.7457,7763
12.7515,7861
12.7572,6946
12.7629,4873
12.7686,4326
12.7743,3308
12.7801,2981
12.7858,2308
12.7915,2479
12.7972,2700
12.803,2627
12.8087,2595
12.8144,2302
12.8201,2191
12.8258,1989
12.8316,1364
12.8373,1678
12.843,1916
12.8487,1312
12.8545,1938
12.8602,1005
12.8659,1950
12.8716,1460
12.8773,1249
12.8831,1777
12.8888,1484
12.8945,1578
12.9002,2334
12.906,2478
12.9117,3012
12.9174,2879
12.9231,2946
12.9288,2624
12.9346,2785
12.9403,2783
12.946,2137
12.9517,2293
12.9574,3039
12.9632,2712
12.9689,2762
12.9746,3046
12.9803,1967
12.9861,1679
12.9918,2315
12.9975,1759
13.0032,2380
13.0089,2377
13.0147,1507
13.0204,1644
13.0261,1634
13.0318,1296
13.0376,1727
13.0433,1646
13.049,1999
13.0547,1266
13.0604,1668
13.0662,1192
13.0719,1371
13.0776,1783
13.0833,1448
13.0891,1951
13.0948,1770
13.1005,2045
13.1062,2488
13.1119,2656
13.1177,2297
13.1234,2818
13.1291,2206
13.1348,2308
13.1406,2596
13.1463,2504
13.152,3303
13.1577,5444
13.1634,10705
13.1692,16648
13.1749,21865
13.1806,26251
13.1863,27022
13.1921,24398
13.1978,19764
13.2035,15813
13.2092,10307
13.2149,6727
13.2207,4213
13.2264,1796
13.2321,2149
13.2378,2025
13.2436,977
13.2493,1356
13.255,1192
13.2607,1336
13.2664,1100
13.2722,1514
13.2779,1265
13.2836,1510
13.2893,1206
13.295,1031
13.3008,848
13.3065,1370
13.3122,764
13.3179,906
13.3237,1075
13.3294,1892
13.3351,939
13.3408,1094
13.3465,1153
13.3523,844
13.358,751
13.3637,1035
13.3694,726
13.3752,1427
13.3809,934
13.3866,772
13.3923,1171
13.398,1459
13.4038,1830
13.4095,426
13.4152,1551
13.4209,712
13.4267,1142
13.4324,1602
13.4381,1074
13.4438,1122
13.4495,1076
13.4553,1445
13.461,1080
13.4667,708
13.4724,655
13.4782,514
13.4839,368
13.4896,617
13.4953,817
13.501,735
13.5068,1265
13.5125,1053
13.5182,878
13.5239,970
13.5297,799
13.5354,1276
13.5411,1132
13.5468,1272
13.5525,461
13.5583,455
13.564,823
13.5697,201
13.5754,595
13.5812,336
13.5869,224
13.5926,396
13.5983,671
13.604,208
13.6098,575
13.6155,523
13.6212,0
13.6269,548
13.6326,595
13.6384,485
13.6441,650
13.6498,1429
13.6555,1477
13.6613,3350
13.667,5731
13.6727,7047
13.6784,7783
13.6841,9592
13.6899,8958
13.6956,9289
13.7013,7896
13.707,5595
13.7128,3921
13.7185,2489
13.7242,3008
13.7299,2020
13.7356,2506
13.7414,1610
13.7471,1334
13.7528,1043
13.7585,1255
13.7643,1198
13.77,993
13.7757,695
13.7814,1163
13.7871,930
13.7929,1035
13.7986,749
13.8043,806
13.81,1257
13.8158,1342
13.8215,712
13.8272,732
13.8329,269
13.8386,437
13.8444,595
13.8501,176
13.8558,853
13.8615,1165
13.8673,906
13.873,999
13.8787,808
13.8844,546
13.8901,795
13.8959,262
13.9016,195
13.9073,407
13.913,1104
13.9188,535
13.9245,572
13.9302,680
13.9359,861
13.9416,834
13.9474,1485
13.9531,1166
13.9588,1262
13.9645,1522
13.9702,893
13.976,937
13.9817,903
13.9874,1230
13.9931,923
13.9989,611
14.0046,1043
14.0103,2881
14.016,5137
14.0217,15028
14.0275,31006
14.0332,58980
14.0389,81813
14.0446,129492
14.0504,156402
14.0561,154764
14.0618,137694
14.0675,102931
14.0732,40460
14.079,23649
14.0847,10526
14.0904,4734
14.0961,1348
14.1019,757
14.1076,801
14.1133,423
14.119,643
14.1247,809
14.1305,1425
14.1362,713
14.1419,1639
14.1476,1321
14.1534,964
14.1591,1051
14.1648,515
14.1705,879
14.1762,1166
14.182,1592
14.1877,1990
14.1934,3717
14.1991,3587
14.2049,2730
14.2106,3351
14.2163,2826
14.222,3037
14.2277,3147
14.2335,2091
14.2392,2636
14.2449,2393
14.2506,3001
14.2564,3183
14.2621,3452
14.2678,1476
14.2735,2541
14.2792,1700
14.285,2597
14.2907,1400
14.2964,1551
14.3021,1958
14.3078,1242
14.3136,943
14.3193,1754
14.325,1780
14.3307,826
14.3365,1668
14.3422,1849
14.3479,2523
14.3536,1890
14.3593,3345
14.3651,1204
14.3708,646
14.3765,1453
14.3822,1882
14.388,3521
14.3937,6174
14.3994,12139
14.4051,16840
14.4108,20678
14.4166,24101
14.4223,20681
14.428,19674
14.4337,14951
14.4395,11517
14.4452,8396
14.4509,6950
14.4566,5416
14.4623,4880
14.4681,4721
14.4738,3810
14.4795,3811
14.4852,3084
14.491,3044
14.4967,2838
14.5024,2905
14.5081,2490
14.5138,2228
14.5196,1766
14.5253,2318
14.531,1968
14.5367,1590
14.5425,2280
14.5482,2157
14.5539,1479
14.5596,1617
14.5653,1806
14.5711,1642
14.5768,1827
14.5825,712
14.5882,571
14.594,1036
14.5997,1275
14.6054,1346
14.6111,1716
14.6168,1684
14.6226,1363
14.6283,1763
14.634,2007
14.6397,1770
14.6455,1893
14.6512,1774
14.6569,2120
14.6626,1810
14.6683,1870
14.6741,2234
14.6798,1617
14.6855,1341
14.6912,1044
14.6969,2081
14.7027,1704
14.7084,2338
14.7141,2490
14.7198,2667
14.7256,2860
14.7313,3848
14.737,3282
14.7427,3475
14.7484,2945
14.7542,2302
14.7599,1962
14.7656,1642
14.7713,1878
14.7771,1669
14.7828,1860
14.7885,1635
14.7942,1514
14.7999,1735
14.8057,913
14.8114,698
14.8171,464
14.8228,631
14.8286,1232
14.8343,1468
14.84,1428
14.8457,1480
14.8514,1997
14.8572,2129
14.8629,1041
14.8686,975
14.8743,762
14.8801,1133
14.8858,1044
14.8915,930
14.8972,697
14.9029,1834
14.9087,467
14.9144,969
14.9201,1132
14.9258,2082
14.9316,3355
14.9373,4044
14.943,4088
14.9487,4161
14.9544,6303
14.9602,6129
14.9659,5769
14.9716,4440
14.9773,2865
14.9831,2422
14.9888,1947
14.9945,757
15.0002,521
15.0059,156
15.0117,218
15.0174,214
15.0231,174
15.0288,219
15.0345,380
15.0403,267
15.046,381
15.0517,0
15.0574,0
15.0632,218
15.0689,376
15.0746,0
15.0803,172
15.086,271
15.0918,181
15.0975,605
15.1032,0
15.1089,0
15.1147,169
15.1204,516
15.1261,577
15.1318,449
15.1375,417
15.1433,154
15.149,239
15.1547,0
15.1604,240
15.1662,176
15.1719,0
15.1776,511
15.1833,225
15.189,169
15.1948,151
15.2005,267
15.2062,0
15.2119,155
15.2177,665
15.2234,432
15.2291,157
15.2348,286
15.2405,167
15.2463,209
15.252,0
15.2577,153
15.2634,0
15.2692,378
15.2749,158
15.2806,160
15.2863,961
15.292,2303
15.2978,5864
15.3035,8084
15.3092,12420
15.3149,16355
15.3207,16299
15.3264,16255
15.3321,11936
15.3378,8290
15.3435,4763
15.3493,2918
15.355,1320
15.3607,1814
15.3664,931
15.3721,1548
15.3779,1741
15.3836,2446
15.3893,2029
15.395,1988
15.4008,2314
15.4065,1664
15.4122,1467
15.4179,1520
15.4236,852
15.4294,677
15.4351,709
15.4408,725
15.4465,442
15.4523,560
15.458,167
15.4637,160
15.4694,174
15.4751,157
15.4809,169
15.4866,0
15.4923,181
15.498,0
15.5038,203
15.5095,207
15.5152,0
15.5209,320
15.5266,0
15.5324,150
15.5381,161
15.5438,381
15.5495,214
15.5553,766
15.561,658
15.5667,1071
15.5724,764
15.5781,165
15.5839,176
15.5896,0
15.5953,725
15.601,401
15.6068,1172
15.6125,1986
15.6182,2743
15.6239,3119
15.6296,3205
15.6354,3821
15.6411,3053
15.6468,1770
15.6525,1325
15.6583,906
15.664,883
15.6697,170
15.6754,258
15.6811,0
15.6869,322
15.6926,230
15.6983,279
15.704,0
15.7097,314
15.7155,196
15.7212,384
15.7269,0
15.7326,0
15.7384,0
15.7441,353
15.7498,338
15.7555,0
15.7612,212
15.767,178
15.7727,364
15.7784,202
15.7841,0
15.7899,196
15.7956,277
15.8013,616
15.807,615
15.8127,1224
15.8185,2479
15.8242,5455
15.8299,13618
15.8356,24221
15.8414,37771
15.8471,56182
15.8528,72219
15.8585,80851
15.8642,77974
15.87,69055
15.8757,51621
15.8814,33260
15.8871,18339
15.8929,9644
15.8986,4583
15.9043,1640
15.91,1024
15.9157,397
15.9215,184
15.9272,223
15.9329,215
15.9386,165
15.9444,378
15.9501,314
15.9558,206
15.9615,0
15.9672,185
15.973,0
15.9787,0
15.9844,0
15.9901,490
15.9959,650
16.0016,1066
16.0073,699
16.013,935
16.0187,1457
16.0245,1354
16.0302,947
16.0359,1772
16.0416,2320
16.0473,4898
16.0531,9420
16.0588,14779
16.0645,18888
16.0702,24320
16.0759,24601
16.0817,21517
16.0874,16641
16.0931,11911
16.0988,7046
16.1046,4424
16.1103,2452
16.116,1403
16.1217,964
16.1275,191
16.1332,864
16.1389,328
16.1446,611
16.1503,1441
16.1561,722
16.1618,1077
16.1675,730
16.1732,1131
16.179,1380
16.1847,1072
16.1904,1311
16.1961,1706
16.2018,1941
16.2076,2037
16.2133,2152
16.219,2076
16.2247,1188
16.2305,1205
16.2362,1039
16.2419,795
16.2476,582
16.2533,780
16.259,950
16.2648,606
16.2705,755
16.2762,456
16.2819,1089
16.2877,1689
16.2934,2020
16.2991,3093
16.3048,2900
16.3105,2914
16.3163,2944
16.322,2022
16.3277,1287
16.3334,370
16.3392,589
16.3449,258
16.3506,600
16.3563,348
16.3621,602
16.3678,0
16.3735,315
16.3792,155
16.3849,354
16.3907,253
16.3964,326
16.4021,464
16.4078,167
16.4136,407
16.4193,525
16.425,2421
16.4307,5911
16.4364,11716
16.4422,19011
16.4479,26326
16.4536,31714
16.4593,32681
16.4651,28216
16.4708,20853
16.4765,14609
16.4822,9765
16.4879,5601
16.4937,2218
16.4994,871
16.5051,983
16.5108,407
16.5165,520
16.5223,194
16.528,183
16.5337,234
16.5394,0
16.5452,172
16.5509,272
16.5566,205
16.5623,442
16.568,562
16.5738,604
16.5795,882
16.5852,0
16.5909,374
16.5967,575
16.6024,185
16.6081,0
16.6138,0
16.6196,446
16.6253,0
16.631,318
16.6367,150
16.6424,216
16.6482,167
16.6539,540
16.6596,0
16.6653,1035
16.6711,840
16.6768,619
16.6825,365
16.6882,191
16.6939,218
16.6996,259
16.7054,171
16.7111,154
16.7168,340
16.7225,1096
16.7283,1352
16.734,1560
16.7397,2007
16.7454,2061
16.7511,2620
16.7569,2207
16.7626,2653
16.7683,3586
16.774,4860
16.7798,4708
16.7855,4794
16.7912,4786
16.7969,3247
16.8027,1721
16.8084,1342
16.8141,408
16.8198,0
16.8255,0
16.8313,0
16.837,199
16.8427,0
16.8484,245
16.8542,1971
16.8599,4132
16.8656,6578
16.8713,11734
16.877,17340
16.8828,19702
16.8885,20697
16.8942,20559
16.8999,17127
16.9057,13486
16.9114,9803
16.9171,6240
16.9228,3357
16.9285,2503
16.9342,1383
16.94,2168
16.9457,1463
16.9514,2321
16.9571,1888
16.9629,2967
16.9686,3234
16.9743,3019
16.98,2676
16.9857,2623
16.9915,2351
16.9972,1816
17.0029,945
17.0086,1016
17.0144,1379
17.0201,544
17.0258,1006
17.0315,1118
17.0373,1262
17.043,3109
17.0487,4229
17.0544,6398
17.0601,7443
17.0659,8031
17.0716,7902
17.0773,9078
17.083,7888
17.0888,9406
17.0945,10920
17.1002,11129
17.1059,9509
17.1116,7719
17.1174,5955
17.1231,3469
17.1288,1329
17.1345,408
17.1403,689
17.146,434
17.1517,560
17.1574,627
17.1631,752
17.1689,464
17.1746,308
17.1803,539
17.186,215
17.1917,240
17.1975,160
17.2032,318
17.2089,183
17.2146,184
17.2204,169
17.2261,187
17.2318,152
17.2375,818
17.2433,673
17.249,415
17.2547,317
17.2604,207
17.2661,395
17.2719,392
17.2776,0
17.2833,212
17.289,1402
17.2948,2208
17.3005,4498
17.3062,7656
17.3119,8364
17.3176,11119
17.3234,9370
17.3291,8939
17.3348,5637
17.3405,4542
17.3463,3011
17.352,3132
17.3577,1940
17.3634,2181
17.3691,2194
17.3748,2236
17.3806,1484
17.3863,959
17.392,856
17.3977,421
17.4035,408
17.4092,206
17.4149,205
17.4206,352
17.4263,226
17.4321,0
17.4378,151
17.4435,484
17.4492,302
17.455,351
17.4607,440
17.4664,210
17.4721,159
17.4779,243
17.4836,611
17.4893,160
17.495,542
17.5007,335
17.5065,0
17.5122,181
17.5179,0
17.5236,0
17.5294,0
17.5351,0
17.5408,0
17.5465,655
17.5522,415
17.558,720
17.5637,908
17.5694,668
17.5751,819
17.5809,496
17.5866,1562
17.5923,907
17.598,1420
17.6037,1169
17.6095,1019
17.6152,442
17.6209,809
17.6266,451
17.6324,633
17.6381,393
17.6438,570
17.6495,164
17.6552,334
17.661,193
17.6667,179
17.6724,154
17.6781,210
17.6839,512
17.6896,351
17.6953,320
17.701,0
17.7067,400
17.7125,521
17.7182,378
17.7239,626
17.7296,601
17.7354,658
17.7411,680
17.7468,1327
17.7525,711
17.7582,1084
17.764,1673
17.7697,1143
17.7754,556
17.7811,736
17.7868,796
17.7926,890
17.7983,918
17.804,479
17.8097,362
17.8155,440
17.8212,436
17.8269,151
17.8326,319
17.8383,372
17.8441,1180
17.8498,3351
17.8555,6457
17.8612,13997
17.8669,22333
17.8727,34086
17.8784,40312
17.8841,44862
17.8898,46224
17.8956,46274
17.9013,49361
17.907,62997
17.9127,82461
17.9185,109354
17.9242,127378
17.9299,133396
17.9356,120651
17.9413,104258
17.9471,80822
17.9528,59681
17.9585,40896
17.9642,31792
17.97,22743
17.9757,14291
17.9814,10855
17.9871,6878
17.9928,4331
17.9986,3438
18.0043,2781
18.01,2764
18.0157,3778
18.0215,6015
18.0272,7095
18.0329,11147
18.0386,13339
18.0443,15054
18.0501,13609
18.0558,12610
18.0615,10720
18.0672,10831
18.073,9550
18.0787,8795
18.0844,9183
18.0901,9264
18.0958,11127
18.1016,13103
18.1073,13048
18.113,13652
18.1187,11255
18.1244,10394
18.1302,8508
18.1359,7643
18.1416,4755
18.1473,4312
18.1531,4746
18.1588,3179
18.1645,4330
18.1702,2905
18.1759,2175
18.1817,1514
18.1874,1732
18.1931,1709
18.1988,1900
18.2046,978
18.2103,1308
18.216,2325
18.2217,4831
18.2274,9163
18.2332,16282
18.2389,29250
18.2446,50340
18.2503,64909
18.2561,75572
18.2618,81730
18.2675,76300
18.2732,65797
18.2789,49187
18.2846,33829
18.2904,22587
18.2961,12398
18.3018,6204
18.3075,4514
18.3133,2692
18.319,1422
18.3247,1074
18.3304,1347
18.3362,1141
18.3419,1322
18.3476,586
18.3533,741
18.3591,774
18.3648,338
18.3705,507
18.3762,936
18.3819,974
18.3877,756
18.3934,339
18.3991,336
18.4048,187
18.4106,531
18.4163,618
18.422,952
18.4277,934
18.4334,1197
18.4392,1562
18.4449,1931
18.4506,1722
18.4563,1685
18.462,522
18.4678,330
18.4735,198
18.4792,388
18.4849,412
18.4907,320
18.4964,435
18.5021,373
18.5078,0
18.5135,174
18.5193,495
18.525,687
18.5307,338
18.5364,157
18.5421,358
18.5479,531
18.5536,378
18.5593,676
18.565,305
18.5708,556
18.5765,529
18.5822,575
18.5879,620
18.5937,1782
18.5994,2001
18.6051,3288
18.6108,4807
18.6165,8154
18.6223,12533
18.628,18038
18.6337,22761
18.6394,24968
18.6452,25314
18.6509,22712
18.6566,18116
18.6623,15271
18.668,11650
18.6738,8982
18.6795,7862
18.6852,7845
18.6909,6834
18.6967,7264
18.7024,5606
18.7081,7814
18.7138,7062
18.7195,6377
18.7253,5036
18.731,5507
18.7367,4332
18.7424,4071
18.7482,3141
18.7539,3476
18.7596,3167
18.7653,2377
18.771,1368
18.7768,1653
18.7825,907
18.7882,1463
18.7939,1061
18.7996,1325
18.8054,957
18.8111,1362
18.8168,1630
18.8225,971
18.8283,1423
18.834,1405
18.8397,1653
18.8454,1463
18.8511,1141
18.8569,941
18.8626,1010
18.8683,1303
18.874,931
18.8798,610
18.8855,413
18.8912,1008
18.8969,784
18.9026,1136
18.9084,1140
18.9141,878
18.9198,1473
18.9255,864
18.9313,1336
18.937,1399
18.9427,1167
18.9484,597
18.9541,1192
18.9598,1054
18.9656,639
18.9713,751
18.977,594
18.9827,472
18.9885,1841
18.9942,2494
18.9999,1314
19.0056,1986
19.0114,1883
19.0171,1529
19.0228,1328
19.0285,1315
19.0343,194
19.04,500
19.0457,1775
19.0514,2733
19.0571,5229
19.0629,10954
19.0686,17935
19.0743,33115
19.08,51930
19.0858,67459
19.0915,73675
19.0972,73136
19.1029,59715
19.1086,45465
19.1144,28683
19.1201,16879
19.1258,10370
19.1315,6717
19.1372,6673
19.143,6057
19.1487,5304
19.1544,7148
19.1601,9723
19.1659,19727
19.1716,38849
19.1773,82447
19.183,163000
19.1887,292842
19.1945,455293
19.2002,667018
19.2059,885411
19.2116,1026342
19.2174,1110682
19.2231,1075031
19.2288,884057
19.2345,644976
19.2402,393458
19.246,214304
19.2517,106360
19.2574,47470
19.2631,21776
19.2689,12988
19.2746,10075
19.2803,10765
19.286,13518
19.2917,16054
19.2975,16420
19.3032,17687
19.3089,14568
19.3146,11989
19.3204,9707
19.3261,6119
19.3318,3572
19.3375,3073
19.3432,2470
19.349,2344
19.3547,3752
19.3604,3531
19.3661,4699
19.3719,7308
19.3776,9431
19.3833,10536
19.389,9429
19.3947,10386
19.4004,8878
19.4062,5760
19.4119,4760
19.4176,2268
19.4233,2253
19.4291,2050
19.4348,1396
19.4405,987
19.4462,1768
19.452,1858
19.4577,1175
19.4634,1175
19.4691,1611
19.4748,671
19.4806,1122
19.4863,1427
19.492,1382
19.4977,2660
19.5035,3436
19.5092,4218
19.5149,3469
19.5206,3852
19.5263,3966
19.5321,2682
19.5378,2459
19.5435,1328
19.5492,987
19.555,1263
19.5607,1825
19.5664,895
19.5721,410
19.5778,664
19.5836,1092
19.5893,724
19.595,569
19.6007,1148
19.6065,487
19.6122,1599
19.6179,827
19.6236,522
19.6293,513
19.6351,541
19.6408,711
19.6465,755
19.6522,559
19.658,511
19.6637,623
19.6694,351
19.6751,744
19.6808,563
19.6866,470
19.6923,322
19.698,551
19.7037,430
19.7095,620
19.7152,1461
19.7209,887
19.7266,571
19.7323,873
19.7381,1478
19.7438,931
19.7495,1707
19.7552,2136
19.761,1556
19.7667,1657
19.7724,1277
19.7781,998
19.7838,1009
19.7896,920
19.7953,656
19.801,765
19.8067,521
19.8125,1905
19.8182,3084
19.8239,4921
19.8296,8346
19.8353,10718
19.841,14473
19.8468,15432
19.8525,14736
19.8582,12083
19.8639,10045
19.8697,7447
19.8754,5261
19.8811,3780
19.8868,2461
19.8926,2368
19.8983,2045
19.904,1809
19.9097,1758
19.9154,1329
19.9212,1076
19.9269,1334
19.9326,769
19.9383,1315
19.9441,1198
19.9498,1251
19.9555,1490
19.9612,639
19.9669,1252
19.9727,1825
19.9784,2066
19.9841,1043
19.9898,1248
19.9956,1500
20.0013,1146
20.007,865
20.0127,892
20.0184,712
20.0242,398
20.0299,791
20.0356,155
20.0413,363
20.0471,522
20.0528,426
20.0585,945
20.0642,831
20.0699,234
20.0757,687
20.0814,718
20.0871,1143
20.0928,1024
20.0985,1873
20.1043,2780
20.11,4509
20.1157,4083
20.1214,3583
20.1272,4475
20.1329,4199
20.1386,3522
20.1443,2974
20.1501,2906
20.1558,2298
20.1615,2330
20.1672,1876
20.1729,1469
20.1787,951
20.1844,1847
20.1901,1289
20.1958,1102
20.2015,2152
20.2073,1934
20.213,2012
20.2187,2132
20.2244,2178
20.2302,656
20.2359,1668
20.2416,1328
20.2473,1766
20.253,2719
20.2588,3267
20.2645,3302
20.2702,2783
20.2759,2945
20.2817,3062
20.2874,2975
20.2931,1329
20.2988,1497
20.3045,2096
20.3103,3880
20.316,8035
20.3217,13579
20.3274,27486
20.3332,47793
20.3389,70269
20.3446,88365
20.3503,100516
20.356,100907
20.3618,93900
20.3675,71446
20.3732,50368
20.3789,30746
20.3847,18457
20.3904,11617
20.3961,6690
20.4018,5091
20.4075,3101
20.4133,3466
20.419,2712
20.4247,2957
20.4304,2247
20.4362,1602
20.4419,2063
20.4476,2518
20.4533,2678
20.459,2689
20.4648,3121
20.4705,3956
20.4762,5529
20.4819,6390
20.4877,8489
20.4934,9067
20.4991,10892
20.5048,12846
20.5105,14802
20.5162,15958
20.522,15047
20.5277,13436
20.5334,14988
20.5391,24838
20.5449,45402
20.5506,91443
20.5563,173524
20.562,289008
20.5678,430780
20.5735,558633
20.5792,701256
20.5849,744512
20.5906,708422
20.5964,559214
20.6021,375387
20.6078,216859
20.6135,106062
20.6193,49622
20.625,22431
20.6307,12359
20.6364,9982
20.6421,7280
20.6479,6708
20.6536,3766
20.6593,3774
20.665,3984
20.6708,2745
20.6765,2082
20.6822,2242
20.6879,2430
20.6936,2818
20.6994,2987
20.7051,1759
20.7108,1826
20.7165,2102
20.7223,1293
20.728,1932
20.7337,1394
20.7394,1145
20.7451,733
20.7509,3070
20.7566,4812
20.7623,10383
20.768,16619
20.7738,22125
20.7795,28557
20.7852,30857
20.7909,32046
20.7966,25415
20.8024,21620
20.8081,15096
20.8138,9500
20.8195,5769
20.8253,4036
20.831,2026
20.8367,1830
20.8424,1423
20.8481,1628
20.8539,897
20.8596,988
20.8653,1003
20.871,1145
20.8767,1798
20.8825,2136
20.8882,2418
20.8939,2820
20.8996,2691
20.9054,3032
20.9111,2051
20.9168,1317
20.9225,2240
20.9282,2639
20.934,4042
20.9397,8852
20.9454,16142
20.9511,30661
20.9568,56353
20.9626,93427
20.9683,143640
20.974,192814
20.9797,253327
20.9855,300252
20.9912,324619
20.9969,336301
21.0026,332357
21.0084,312045
21.0141,299760
21.0198,312046
21.0255,321645
21.0312,312154
21.037,279443
21.0427,215078
21.0484,159257
21.0541,102753
21.0599,67202
21.0656,44251
21.0713,30799
21.077,21479
21.0827,15977
21.0885,13189
21.0942,11536
21.0999,11757
21.1056,10661
21.1114,10428
21.1171,8725
21.1228,8747
21.1285,7283
21.1342,7648
21.14,7760
21.1457,6988
21.1514,6911
21.1571,6694
21.1629,7087
21.1686,6388
21.1743,5622
21.18,6954
21.1857,5648
21.1915,6724
21.1972,5067
21.2029,5604
21.2086,5214
21.2143,5932
21.2201,3827
21.2258,4126
21.2315,4135
21.2372,4332
21.243,3294
21.2487,2760
21.2544,3759
21.2601,4545
21.2658,5959
21.2716,6689
21.2773,9384
21.283,16399
21.2887,27022
21.2945,44242
21.3002,69880
21.3059,98746
21.3116,120431
21.3173,133491
21.3231,135860
21.3288,123867
21.3345,109226
21.3402,88125
21.346,69805
21.3517,56743
21.3574,49234
21.3631,47303
21.3688,43527
21.3745,47874
21.3803,47407
21.386,48255
21.3917,51166
21.3975,55554
21.4032,55523
21.4089,57139
21.4146,59987
21.4203,61847
21.4261,65741
21.4318,68885
21.4375,70953
21.4432,77448
21.449,78073
21.4547,75149
21.4604,63069
21.4661,35965
21.4718,20883
21.4776,15272
21.4833,14124
21.489,11942
21.4947,9872
21.5005,10773
21.5062,9332
21.5119,8258
21.5176,7275
21.5233,5972
21.5291,6960
21.5348,6281
21.5405,6778
21.5462,6277
21.5519,6505
21.5577,8164
21.5634,7677
21.5691,7333
21.5748,8313
21.5806,8742
21.5863,9955
21.592,9560
21.5977,8623
21.6034,10034
21.6092,10215
21.6149,10492
21.6206,10328
21.6263,13136
21.6321,12562
21.6378,11227
21.6435,12250
21.6492,11215
21.6549,12622
21.6607,11331
21.6664,10018
21.6721,10805
21.6778,8891
21.6836,9683
21.6893,11154
21.695,11652
21.7007,12276
21.7064,14048
21.7122,12025
21.7179,13024
21.7236,10621
21.7293,10062
21.7351,7577
21.7408,6299
21.7465,5320
21.7522,4681
21.7579,3657
21.7637,4547
21.7694,4316
21.7751,3470
21.7808,3317
21.7866,3822
21.7923,4151
21.798,3907
21.8037,4162
21.8094,4350
21.8152,4988
21.8209,6138
21.8266,6399
21.8323,5205
21.8381,4851
21.8438,4626
21.8495,5014
21.8552,5299
21.8609,4887
21.8667,4430
21.8724,5601
21.8781,5823
21.8838,5539
21.8895,5651
21.8953,7595
21.901,8334
21.9067,7566
21.9124,8647
21.9182,8664
21.9239,8028
21.9296,6503
21.9353,6997
21.941,6488
21.9468,6139
21.9525,7225
21.9582,5738
21.9639,6723
21.9697,7247
21.9754,8500
21.9811,9659
21.9868,12204
21.9925,12905
21.9983,14416
22.004,16007
22.0097,16122
22.0154,16423
22.0212,14989
22.0269,14259
22.0326,13269
22.0383,12872
22.044,12716
22.0498,12479
22.0555,11335
22.0612,13125
22.0669,13755
22.0726,13487
22.0784,13296
22.0841,13671
22.0898,14857
22.0955,14087
22.1013,14533
22.107,10894
22.1127,10919
22.1184,10237
22.1242,8225
22.1299,7495
22.1356,8496
22.1413,9208
22.147,9717
22.1528,11680
22.1585,13106
22.1642,17800
22.1699,17448
22.1757,17770
22.1814,16454
22.1871,16845
22.1928,15179
22.1985,12631
22.2043,10871
22.21,11779
22.2157,11984
22.2214,13196
22.2271,14892
22.2329,19816
22.2386,21510
22.2443,24327
22.25,26021
22.2558,21007
22.2615,19320
22.2672,15100
22.2729,10063
22.2786,7698
22.2844,7590
22.2901,6815
22.2958,8156
22.3015,9352
22.3073,11825
22.313,15041
22.3187,14664
22.3244,14962
22.3301,16063
22.3359,12818
22.3416,11104
22.3473,10796
22.353,11770
22.3588,11535
22.3645,11507
22.3702,13674
22.3759,12166
22.3816,13231
22.3874,12753
22.3931,12365
22.3988,12741
22.4045,16810
22.4103,22928
22.416,26274
22.4217,33575
22.4274,37677
22.4331,35314
22.4389,32312
22.4446,25674
22.4503,19890
22.456,15277
22.4618,9465
22.4675,8115
22.4732,7481
22.4789,5137
22.4846,5124
22.4903,5367
22.4961,5203
22.5018,6420
22.5075,6696
22.5132,7121
22.519,8388
22.5247,7263
22.5304,7117
22.5361,5551
22.5419,6447
22.5476,5620
22.5533,6585
22.559,5858
22.5648,6969
22.5705,6847
22.5762,8151
22.5819,8972
22.5876,9690
22.5934,12445
22.5991,14479
22.6048,13273
22.6105,13829
22.6162,11559
22.622,11036
22.6277,9779
22.6334,8095
22.6391,7343
22.6449,7467
22.6506,6889
22.6563,6659
22.662,5977
22.6677,5783
22.6735,6793
22.6792,5995
22.6849,5728
22.6906,7006
22.6964,5556
22.7021,7560
22.7078,7444
22.7135,7342
22.7192,5969
22.725,6270
22.7307,5301
22.7364,4884
22.7421,4041
22.7479,5237
22.7536,4994
22.7593,4821
22.765,7798
22.7707,9526
22.7765,10324
22.7822,10767
22.7879,11612
22.7936,10593
22.7994,9392
22.8051,8559
22.8108,6224
22.8165,6763
22.8222,5133
22.828,5910
22.8337,5771
22.8394,5466
22.8451,5209
22.8509,6141
22.8566,7080
22.8623,8183
22.868,8352
22.8737,11396
22.8795,12476
22.8852,13545
22.8909,15055
22.8966,14900
22.9024,14487
22.9081,15332
22.9138,16257
22.9195,14302
22.9252,12746
22.931,11905
22.9367,9913
22.9424,10484
22.9481,9069
22.9538,8065
22.9596,7403
22.9653,7625
22.971,8182
22.9767,8996
22.9825,7029
22.9882,7539
22.9939,7864
22.9996,7203
23.0053,6677
23.0111,6660
23.0168,7209
23.0225,7570
23.0282,9348
23.034,8840
23.0397,11128
23.0454,11413
23.0511,10532
23.0568,11629
23.0626,11927
23.0683,10351
23.074,10387
23.0797,12643
23.0855,15219
23.0912,15032
23.0969,18622
23.1026,19607
23.1083,20399
23.1141,21930
23.1198,25547
23.1255,28379
23.1312,35072
23.137,36123
23.1427,40926
23.1484,41055
23.1541,40455
23.1598,35580
23.1656,29959
23.1713,23375
23.177,18763
23.1827,13141
23.1885,12487
23.1942,14256
23.1999,20051
23.2056,30963
23.2113,49864
23.2171,71500
23.2228,102883
23.2285,130069
23.2342,142595
23.24,144936
23.2457,134461
23.2514,115504
23.2571,92727
23.2628,72965
23.2686,60283
23.2743,57263
23.28,53763
23.2857,48403
23.2914,41870
23.2972,38412
23.3029,26683
23.3086,22008
23.3143,18457
23.3201,15658
23.3258,11128
23.3315,9487
23.3372,9686
23.3429,8731
23.3487,7765
23.3544,8974
23.3601,7995
23.3658,11199
23.3716,10939
23.3773,13946
23.383,18001
23.3887,20406
23.3944,23209
23.4002,23583
23.4059,21729
23.4116,19353
23.4173,16508
23.4231,13061
23.4288,10245
23.4345,8873
23.4402,7462
23.4459,8657
23.4517,7835
23.4574,8406
23.4631,8224
23.4688,9144
23.4746,8417
23.4803,7948
23.486,7864
23.4917,7509
23.4974,7819
23.5032,8084
23.5089,8436
23.5146,8616
23.5203,8518
23.5261,9296
23.5318,9126
23.5375,9215
23.5432,9573
23.5489,10569
23.5547,12032
23.5604,11271
23.5661,10974
23.5718,12176
23.5776,11668
23.5833,11979
23.589,12161
23.5947,16117
23.6004,19945
23.6062,26054
23.6119,32838
23.6176,40875
23.6233,46314
23.629,49676
23.6348,48524
23.6405,43129
23.6462,38207
23.6519,35729
23.6577,30840
23.6634,28739
23.6691,27154
23.6748,25273
23.6805,22005
23.6863,21840
23.692,19167
23.6977,17747
23.7034,17514
23.7092,17089
23.7149,15774
23.7206,16355
23.7263,13786
23.732,15341
23.7378,13798
23.7435,12143
23.7492,13611
23.7549,13228
23.7607,14666
23.7664,14030
23.7721,12290
23.7778,13215
23.7835,12807
23.7893,12220
23.795,10569
23.8007,9756
23.8064,10486
23.8122,8668
23.8179,10324
23.8236,9902
23.8293,7936
23.835,7714
23.8408,8472
23.8465,8526
23.8522,8306
23.8579,9177
23.8637,8755
23.8694,8600
23.8751,8935
23.8808,9791
23.8865,10676
23.8923,12273
23.898,15937
23.9037,18980
23.9094,28256
23.9152,40899
23.9209,50669
23.9266,62895
23.9323,70361
23.938,70490
23.9438,67417
23.9495,57530
23.9552,44650
23.9609,36455
23.9666,28769
23.9724,25369
23.9781,24638
23.9838,23150
23.9895,25500
23.9953,31289
24.001,32921
24.0067,34326
24.0124,38247
24.0181,37423
24.0239,34700
24.0296,31822
24.0353,29245
24.041,27650
24.0467,24926
24.0525,27396
24.0582,26726
24.0639,22791
24.0696,20000
24.0754,16649
24.0811,13486
24.0868,9988
24.0925,9651
24.0983,7577
24.104,8320
24.1097,8324
24.1154,9808
24.1211,8475
24.1269,10475
24.1326,11322
24.1383,14475
24.144,15869
24.1498,19075
24.1555,18762
24.1612,20271
24.1669,21013
24.1726,19345
24.1784,17790
24.1841,16623
24.1898,14372
24.1955,14825
24.2013,14098
24.207,12590
24.2127,12415
24.2184,12389
24.2241,10522
24.2299,8753
24.2356,9380
24.2413,9614
24.247,9752
24.2528,10302
24.2585,10379
24.2642,10183
24.2699,12021
24.2756,13877
24.2814,17128
24.2871,23002
24.2928,26154
24.2985,30932
24.3042,36809
24.31,41495
24.3157,45310
24.3214,50378
24.3271,55303
24.3329,56934
24.3386,68390
24.3443,73941
24.35,76930
24.3557,81966
24.3615,73454
24.3672,65058
24.3729,55440
24.3786,47966
24.3844,39188
24.3901,34416
24.3958,31562
24.4015,30491
24.4072,30899
24.413,30855
24.4187,33506
24.4244,34278
24.4301,34868
24.4359,32735
24.4416,33875
24.4473,29325
24.453,29738
24.4587,26977
24.4645,26031
24.4702,26634
24.4759,27810
24.4816,26275
24.4874,23072
24.4931,22484
24.4988,20058
24.5045,20600
24.5102,20746
24.516,19889
24.5217,20493
24.5274,20036
24.5331,22529
24.5389,25858
24.5446,31023
24.5503,45095
24.556,58431
24.5617,83406
24.5675,102654
24.5732,129861
24.5789,153866
24.5846,161545
24.5904,170276
24.5961,163752
24.6018,150945
24.6075,134838
24.6132,125184
24.619,120851
24.6247,118131
24.6304,113942
24.6361,102444
24.6418,92261
24.6476,78441
24.6533,70416
24.659,58813
24.6647,51536
24.6705,48234
24.6762,48609
24.6819,48754
24.6876,58262
24.6933,72810
24.6991,89717
24.7048,102192
24.7105,106763
24.7162,105805
24.722,94299
24.7277,76154
24.7334,62622
24.7391,46470
24.7448,36919
24.7506,30031
24.7563,26537
24.762,26412
24.7677,28815
24.7735,31534
24.7792,34221
24.7849,34698
24.7906,36223
24.7963,34713
24.8021,31628
24.8078,30090
24.8135,27233
24.8192,23841
24.825,23675
24.8307,23777
24.8364,22893
24.8421,22337
24.8478,23222
24.8536,24075
24.8593,23976
24.865,25131
24.8707,23802
24.8765,24357
24.8822,28048
24.8879,26327
24.8936,27545
24.8993,28245
24.9051,27332
24.9108,28604
24.9165,30890
24.9222,30537
24.928,32240
24.9337,33638
24.9394,34880
24.9451,35945
24.9508,35427
24.9566,35689
24.9623,39033
24.968,39512
24.9737,40278
24.9795,44785
24.9852,51757
24.9909,58525
24.9966,67425
25.0023,80857
25.0081,87375
25.0138,84379
25.0195,78793
25.0252,74945
25.0309,66924
25.0367,57312
25.0424,53475
25.0481,44414
25.0538,44645
25.0596,39942
25.0653,40575
25.071,39057
25.0767,41103
25.0824,45881
25.0882,52150
25.0939,55354
25.0996,50945
25.1053,58236
25.1111,50440
25.1168,39469
25.1225,38660
25.1282,32398
25.1339,27379
25.1397,24176
25.1454,22576
25.1511,21461
25.1568,25493
25.1626,23113
25.1683,28402
25.174,32299
25.1797,35178
25.1854,30664
25.1912,30652
25.1969,26898
25.2026,25085
25.2083,21952
25.2141,21572
25.2198,19093
25.2255,22458
25.2312,24776
25.2369,25609
25.2427,28357
25.2484,30918
25.2541,33523
25.2598,36991
25.2656,42026
25.2713,45536
25.277,52716
25.2827,58124
25.2884,58988
25.2942,58531
25.2999,58406
25.3056,61234
25.3113,67284
25.3171,78640
25.3228,91549
25.3285,104742
25.3342,113231
25.3399,116955
25.3457,107611
25.3514,88602
25.3571,71100
25.3628,54928
25.3685,45409
25.3743,36514
25.38,34018
25.3857,30567
25.3914,29631
25.3972,27967
25.4029,28417
25.4086,28713
25.4143,26821
25.42,27346
25.4258,26048
25.4315,30367
25.4372,28954
25.4429,32416
25.4487,33326
25.4544,34464
25.4601,33721
25.4658,32428
25.4715,32825
25.4773,29289
25.483,31579
25.4887,35374
25.4944,42675
25.5002,54740
25.5059,71205
25.5116,84952
25.5173,104410
25.523,112206
25.5288,122085
25.5345,117366
25.5402,109982
25.5459,103037
25.5517,88371
25.5574,81903
25.5631,83259
25.5688,88538
25.5745,98302
25.5802,115689
25.586,141255
25.5917,170309
25.5974,207040
25.6032,244156
25.6089,271014
25.6146,304108
25.6203,326961
25.626,335529
25.6318,328898
25.6375,311530
25.6432,280836
25.6489,254046
25.6547,227279
25.6604,199230
25.6661,181771
25.6718,164431
25.6775,150961
25.6833,135484
25.689,120908
25.6947,108813
25.7004,92617
25.7061,81951
25.7119,78431
25.7176,75284
25.7233,74557
25.729,79616
25.7348,84215
25.7405,83652
25.7462,81087
25.7519,69163
25.7576,57640
25.7634,52512
25.7691,48765
25.7748,43525
25.7805,40938
25.7863,38960
25.792,40259
25.7977,39644
25.8034,38542
25.8091,39486
25.8149,38971
25.8206,36485
25.8263,35177
25.832,36011
25.8378,35735
25.8435,36978
25.8492,36586
25.8549,35323
25.8606,37414
25.8664,36270
25.8721,33072
25.8778,32458
25.8835,34143
25.8893,33970
25.895,37942
25.9007,38967
25.9064,40914
25.9121,39364
25.9179,38354
25.9236,37709
25.9293,35696
25.935,39231
25.9408,39124
25.9465,41621
25.9522,40575
25.9579,38263
25.9636,34351
25.9694,31178
25.9751,28421
25.9808,26768
25.9865,22897
25.9923,23011
25.998,23670
26.0037,24017
26.0094,25445
26.0151,31549
26.0209,37240
26.0266,45845
26.0323,51877
26.038,57339
26.0437,56849
26.0495,53076
26.0552,47817
26.0609,44456
26.0666,40625
26.0724,36231
26.0781,34124
26.0838,31982
26.0895,29944
26.0952,28020
26.101,29282
26.1067,27766
26.1124,24741
26.1181,22905
26.1239,23382
26.1296,21024
26.1353,20920
26.141,20848
26.1467,17747
26.1525,17272
26.1582,17889
26.1639,17701
26.1696,17254
26.1754,16904
26.1811,15711
26.1868,17110
26.1925,16023
26.1982,16498
26.204,18608
26.2097,18149
26.2154,18537
26.2211,19939
26.2269,19780
26.2326,21231
26.2383,21755
26.244,22304
26.2497,22811
26.2555,21211
26.2612,20727
26.2669,24365
26.2726,23329
26.2784,23960
26.2841,25889
26.2898,26836
26.2955,32750
26.3012,41600
26.307,58692
26.3127,91253
26.3184,156378
26.3241,273438
26.3299,473118
26.3356,721756
26.3413,1026301
26.347,1354105
26.3527,1637118
26.3585,1788500
26.3642,1803025
26.3699,1606643
26.3756,1199205
26.3813,797832
26.3871,484020
26.3928,265274
26.3985,145759
26.4042,90581
26.41,68589
26.4157,57655
26.4214,51690
26.4271,52100
26.4328,49238
26.4386,44903
26.4443,43591
26.45,38640
26.4557,38396
26.4615,35144
26.4672,33671
26.4729,28849
26.4786,29850
26.4843,29098
26.4901,28748
26.4958,27489
26.5015,29496
26.5072,35412
26.513,38361
26.5187,42031
26.5244,51182
26.5301,61944
26.5358,74164
26.5416,84663
26.5473,94111
26.553,103034
26.5587,111039
26.5645,112562
26.5702,114142
26.5759,108951
26.5816,112008
26.5873,105286
26.5931,103897
26.5988,100537
26.6045,98153
26.6102,94601
26.616,94759
26.6217,93654
26.6274,93208
26.6331,100439
26.6388,115309
26.6446,134127
26.6503,163278
26.656,187385
26.6617,197406
26.6675,201079
26.6732,195485
26.6789,162992
26.6846,130083
26.6903,101415
26.6961,77416
26.7018,62615
26.7075,52790
26.7132,47530
26.7189,44608
26.7247,40436
26.7304,37426
26.7361,35922
26.7418,35441
26.7476,33479
26.7533,32208
26.759,28865
26.7647,30539
26.7704,31012
26.7762,28023
26.7819,25764
26.7876,26291
26.7933,26464
26.7991,26292
26.8048,23672
26.8105,26479
26.8162,26150
26.8219,26735
26.8277,29240
26.8334,27885
26.8391,28356
26.8448,27711
26.8506,30178
26.8563,36439
26.862,40943
26.8677,48494
26.8734,58365
26.8792,65706
26.8849,69425
26.8906,73012
26.8963,75775
26.9021,71901
26.9078,71932
26.9135,65533
26.9192,63243
26.9249,58743
26.9307,57566
26.9364,52497
26.9421,50822
26.9478,47298
26.9536,46278
26.9593,47266
26.965,53869
26.9707,60187
26.9764,72575
26.9822,88579
26.9879,105299
26.9936,115055
26.9993,115368
27.0051,110165
27.0108,95302
27.0165,85505
27.0222,78139
27.0279,79588
27.0337,80959
27.0394,86280
27.0451,88680
27.0508,83781
27.0565,77641
27.0623,66333
27.068,53387
27.0737,41078
27.0794,34068
27.0852,28300
27.0909,24843
27.0966,23931
27.1023,23038
27.108,22721
27.1138,21985
27.1195,18992
27.1252,20429
27.1309,20730
27.1367,20175
27.1424,19766
27.1481,20582
27.1538,21431
27.1595,24119
27.1653,24295
27.171,27202
27.1767,29906
27.1824,32802
27.1882,34078
27.1939,31184
27.1996,31730
27.2053,30258
27.211,32213
27.2168,34625
27.2225,36352
27.2282,38844
27.2339,39790
27.2397,46095
27.2454,47657
27.2511,49121
27.2568,49672
27.2625,49572
27.2683,46707
27.274,47221
27.2797,45148
27.2854,46930
27.2912,43320
27.2969,44641
27.3026,42840
27.3083,41871
27.314,41016
27.3198,39219
27.3255,39645
27.3312,36741
27.3369,38582
27.3427,37981
27.3484,37356
27.3541,40029
27.3598,42244
27.3655,44060
27.3713,45376
27.377,45016
27.3827,45601
27.3884,44219
27.3941,42346
27.3999,40722
27.4056,41880
27.4113,39275
27.417,39338
27.4228,40672
27.4285,44193
27.4342,42359
27.4399,45572
27.4456,45928
27.4514,47326
27.4571,45563
27.4628,46016
27.4685,47518
27.4743,47450
27.48,47061
27.4857,46493
27.4914,45601
27.4971,42397
27.5029,41756
27.5086,38059
27.5143,36425
27.52,34749
27.5258,33107
27.5315,31680
27.5372,30710
27.5429,26430
27.5486,25987
27.5544,25072
27.5601,23172
27.5658,22686
27.5715,22435
27.5773,23473
27.583,22614
27.5887,21087
27.5944,24341
27.6001,27134
27.6059,28082
27.6116,29207
27.6173,30599
27.623,30930
27.6288,27685
27.6345,28916
27.6402,26364
27.6459,23978
27.6516,22786
27.6574,21523
27.6631,23649
27.6688,22092
27.6745,19810
27.6803,22610
27.686,18930
27.6917,19195
27.6974,18375
27.7031,19046
27.7089,16855
27.7146,16828
27.7203,15962
27.726,16112
27.7317,16414
27.7375,16547
27.7432,17811
27.7489,18683
27.7546,20401
27.7604,22485
27.7661,22408
27.7718,26644
27.7775,27811
27.7832,31221
27.789,31812
27.7947,32980
27.8004,33573
27.8061,35795
27.8119,37736
27.8176,39465
27.8233,45600
27.829,47343
27.8347,49258
27.8405,46424
27.8462,44373
27.8519,40885
27.8576,41114
27.8634,35257
27.8691,32767
27.8748,32238
27.8805,30795
27.8862,33290
27.892,33638
27.8977,35802
27.9034,35347
27.9091,38018
27.9149,41826
27.9206,42004
27.9263,44321
27.932,45758
27.9377,47548
27.9435,50776
27.9492,54026
27.9549,53678
27.9606,54089
27.9664,54677
27.9721,52177
27.9778,50577
27.9835,48399
27.9892,46407
27.995,43124
28.0007,42003
28.0064,40253
28.0121,38764
28.0179,40542
28.0236,41981
28.0293,41624
28.035,40796
28.0407,39487
28.0465,39775
28.0522,39541
28.0579,39428
28.0636,34209
28.0694,33088
28.0751,33220
28.0808,30282
28.0865,29390
28.0922,31032
28.098,29474
28.1037,33445
28.1094,32657
28.1151,33048
28.1208,32813
28.1266,33188
28.1323,32984
28.138,35095
28.1437,32801
28.1495,30169
28.1552,29238
28.1609,27782
28.1666,26721
28.1723,25741
28.1781,27882
28.1838,30315
28.1895,32629
28.1952,37647
28.201,42796
28.2067,43461
28.2124,51360
28.2181,52163
28.2238,55824
28.2296,61826
28.2353,65785
28.241,67699
28.2467,74876
28.2525,77740
28.2582,78974
28.2639,84719
28.2696,86336
28.2753,93700
28.2811,106439
28.2868,123026
28.2925,145657
28.2982,171016
28.304,198065
28.3097,226779
28.3154,240397
28.3211,253922
28.3268,253574
28.3326,245537
28.3383,224875
28.344,212383
28.3497,193754
28.3555,175202
28.3612,154972
28.3669,135380
28.3726,120581
28.3783,102379
28.3841,94428
28.3898,84531
28.3955,76269
28.4012,71043
28.407,67461
28.4127,64443
28.4184,62322
28.4241,58162
28.4298,57583
28.4356,52929
28.4413,49421
28.447,52174
28.4527,48617
28.4584,53467
28.4642,56880
28.4699,63398
28.4756,69080
28.4813,76087
28.4871,81932
28.4928,81049
28.4985,76432
28.5042,72287
28.5099,68653
28.5157,61409
28.5214,54328
28.5271,48537
28.5328,42607
28.5386,38489
28.5443,37893
28.55,35158
28.5557,35870
28.5614,35243
28.5672,33902
28.5729,35324
28.5786,38260
28.5843,39045
28.5901,39165
28.5958,38487
28.6015,39591
28.6072,44769
28.6129,44802
28.6187,42685
28.6244,44792
28.6301,42517
28.6358,43703
28.6416,43377
28.6473,43519
28.653,43943
28.6587,42431
28.6644,45696
28.6702,43739
28.6759,49393
28.6816,51364
28.6873,57857
28.6931,68612
28.6988,82363
28.7045,104454
28.7102,123247
28.7159,142504
28.7217,148099
28.7274,156015
28.7331,153681
28.7388,140273
28.7446,123525
28.7503,111185
28.756,101171
28.7617,97109
28.7674,101795
28.7732,104314
28.7789,117045
28.7846,119223
28.7903,128487
28.796,123461
28.8018,116000
28.8075,109585
28.8132,100295
28.8189,90854
28.8247,79665
28.8304,79845
28.8361,72977
28.8418,70661
28.8475,67399
28.8533,64799
28.859,62455
28.8647,60264
28.8704,62330
28.8762,67483
28.8819,77846
28.8876,91411
28.8933,110008
28.899,118913
28.9048,126923
28.9105,125440
28.9162,120943
28.9219,116348
28.9277,101240
28.9334,90881
28.9391,79317
28.9448,70936
28.9505,64815
28.9563,57833
28.962,53044
28.9677,45978
28.9734,43486
28.9792,37609
28.9849,35597
28.9906,31853
28.9963,30277
29.002,27516
29.0078,26734
29.0135,23520
29.0192,26667
29.0249,23194
29.0307,23145
29.0364,26627
29.0421,26287
29.0478,29367
29.0535,28328
29.0593,30958
29.065,29149
29.0707,33839
29.0764,38449
29.0822,46931
29.0879,59275
29.0936,72906
29.0993,88362
29.105,102695
29.1108,117127
29.1165,128520
29.1222,146340
29.1279,154205
29.1336,162477
29.1394,172012
29.1451,188135
29.1508,195029
29.1565,195667
29.1623,187678
29.168,172637
29.1737,155259
29.1794,153520
29.1851,143295
29.1909,142742
29.1966,141688
29.2023,131764
29.208,120922
29.2138,103788
29.2195,92159
29.2252,73539
29.2309,60463
29.2366,51557
29.2424,42350
29.2481,40134
29.2538,36395
29.2595,34301
29.2653,33687
29.271,36795
29.2767,41822
29.2824,47914
29.2881,53158
29.2939,59294
29.2996,65188
29.3053,66536
29.311,69807
29.3168,63761
29.3225,59672
29.3282,54998
29.3339,49055
29.3396,43799
29.3454,43581
29.3511,42819
29.3568,41207
29.3625,41943
29.3683,40961
29.374,39268
29.3797,38747
29.3854,36965
29.3911,35638
29.3969,39450
29.4026,43139
29.4083,47157
29.414,50895
29.4198,52129
29.4255,55883
29.4312,53279
29.4369,53139
29.4426,52242
29.4484,52939
29.4541,55637
29.4598,56130
29.4655,58245
29.4712,59258
29.477,58730
29.4827,55618
29.4884,48777
29.4941,45578
29.4999,44087
29.5056,43168
29.5113,48696
29.517,57132
29.5227,67381
29.5285,78007
29.5342,89159
29.5399,98837
29.5456,96146
29.5514,90867
29.5571,86558
29.5628,78968
29.5685,74040
29.5742,67232
29.58,65098
29.5857,57837
29.5914,60964
29.5971,60933
29.6029,65622
29.6086,66546
29.6143,64133
29.62,59282
29.6257,57186
29.6315,51950
29.6372,45073
29.6429,44363
29.6486,41726
29.6544,41102
29.6601,42584
29.6658,46707
29.6715,50705
29.6772,53710
29.683,55880
29.6887,58576
29.6944,56624
29.7001,54542
29.7059,49718
29.7116,46567
29.7173,40936
29.723,36374
29.7287,33140
29.7345,30005
29.7402,27762
29.7459,26943
29.7516,27397
29.7574,29060
29.7631,27491
29.7688,30356
29.7745,27564
29.7802,27877
29.786,27500
29.7917,25509
29.7974,25727
29.8031,23171
29.8088,22558
29.8146,23031
29.8203,24323
29.826,24811
29.8317,23390
29.8375,26857
29.8432,26309
29.8489,26465
29.8546,22679
29.8603,25544
29.8661,22215
29.8718,22051
29.8775,20484
29.8832,20092
29.889,18770
29.8947,19702
29.9004,18493
29.9061,19230
29.9118,17366
29.9176,17823
29.9233,18302
29.929,18138
29.9347,19281
29.9405,20404
29.9462,21512
29.9519,20618
29.9576,22654
29.9633,24098
29.9691,26131
29.9748,27544
29.9805,33515
29.9862,34753
29.992,40932
29.9977,42204
30.0034,48127
30.0091,57101
30.0148,68012
30.0206,83091
30.0263,97891
30.032,118361
30.0377,123027
30.0435,128707
30.0492,138097
30.0549,135332
30.0606,132819
30.0663,124261
30.0721,118415
30.0778,110484
30.0835,106892
30.0892,99601
30.095,100262
30.1007,93383
30.1064,89674
30.1121,85013
30.1178,80831
30.1236,78087
30.1293,73960
30.135,68138
30.1407,66077
30.1464,61391
30.1522,58891
30.1579,60079
30.1636,59748
30.1693,56671
30.1751,56882
30.1808,56832
30.1865,55315
30.1922,56292
30.1979,56786
30.2037,57726
30.2094,57391
30.2151,57854
30.2208,59107
30.2266,55996
30.2323,51642
30.238,50357
30.2437,48015
30.2494,46250
30.2552,43256
30.2609,44595
30.2666,39480
30.2723,41645
30.2781,40924
30.2838,42491
30.2895,44242
30.2952,51277
30.3009,59556
30.3067,79101
30.3124,100019
30.3181,140085
30.3238,197244
30.3296,265012
30.3353,341869
30.341,424004
30.3467,515526
30.3524,585215
30.3582,669057
30.3639,728379
30.3696,754630
30.3753,740503
30.3811,740253
30.3868,699996
30.3925,660148
30.3982,613712
30.4039,556425
30.4097,518387
30.4154,487718
30.4211,451955
30.4268,409666
30.4326,373641
30.4383,340845
30.444,307509
30.4497,297635
30.4554,274162
30.4612,269315
30.4669,254638
30.4726,248879
30.4783,243545
30.484,227452
30.4898,214316
30.4955,188985
30.5012,173666
30.5069,161283
30.5127,147046
30.5184,130710
30.5241,122244
30.5298,120262
30.5355,117472
30.5413,107248
30.547,104431
30.5527,98031
30.5584,91022
30.5642,89735
30.5699,85698
30.5756,83343
30.5813,81356
30.587,81569
30.5928,82712
30.5985,77479
30.6042,79425
30.6099,79545
30.6157,81925
30.6214,88389
30.6271,91888
30.6328,95513
30.6385,97177
30.6443,103698
30.65,102268
30.6557,108789
30.6614,105290
30.6672,110671
30.6729,108165
30.6786,111749
30.6843,114074
30.69,110669
30.6958,110671
30.7015,117851
30.7072,134433
30.7129,162548
30.7187,196768
30.7244,253409
30.7301,332268
30.7358,435767
30.7415,558789
30.7473,721624
30.753,895647
30.7587,1114505
30.7644,1329034
30.7702,1554197
30.7759,1908835
30.7816,2125155
30.7873,2364499
30.793,2633033
30.7988,2896706
30.8045,3198346
30.8102,3402765
30.8159,3642707
30.8217,4028197
30.8274,4153829
30.8331,3994609
30.8388,3385771
30.8445,2254454
30.8503,1227692
30.856,722335
30.8617,530409
30.8674,431664
30.8731,385746
30.8789,338385
30.8846,308528
30.8903,285914
30.896,262331
30.9018,244739
30.9075,231214
30.9132,216524
30.9189,203976
30.9246,195470
30.9304,184093
30.9361,183872
30.9418,175822
30.9475,170637
30.9533,164502
30.959,161738
30.9647,159736
30.9704,156962
30.9761,155893
30.9819,148904
30.9876,142209
30.9933,134396
30.999,133271
31.0048,123275
31.0105,122090
31.0162,121458
31.0219,118942
31.0276,123150
31.0334,120256
31.0391,120217
31.0448,118824
31.0505,115552
31.0563,112811
31.062,109505
31.0677,105658
31.0734,105571
31.0791,101087
31.0849,100098
31.0906,99444
31.0963,95595
31.102,95234
31.1078,95598
31.1135,94050
31.1192,90226
31.1249,90626
31.1306,95110
31.1364,92430
31.1421,92080
31.1478,93162
31.1535,104145
31.1593,117393
31.165,143239
31.1707,170397
31.1764,203517
31.1821,228203
31.1879,246482
31.1936,251634
31.1993,231287
31.205,204271
31.2107,173927
31.2165,146426
31.2222,125185
31.2279,101167
31.2336,91812
31.2394,80636
31.2451,75015
31.2508,73690
31.2565,75174
31.2622,74665
31.268,74445
31.2737,75803
31.2794,75096
31.2851,73964
31.2909,74239
31.2966,71432
31.3023,74396
31.308,75020
31.3137,81385
31.3195,81767
31.3252,88344
31.3309,96168
31.3366,98420
31.3424,101629
31.3481,96394
31.3538,92855
31.3595,87573
31.3652,85545
31.371,79444
31.3767,80467
31.3824,77978
31.3881,78658
31.3939,80319
31.3996,75323
31.4053,78588
31.411,76298
31.4167,80169
31.4225,77497
31.4282,77858
31.4339,75398
31.4396,77234
31.4454,74980
31.4511,72031
31.4568,70146
31.4625,71315
31.4682,67221
31.474,65967
31.4797,68873
31.4854,65787
31.4911,68840
31.4969,68216
31.5026,70913
31.5083,71162
31.514,71030
31.5197,68996
31.5255,67409
31.5312,66161
31.5369,69280
31.5426,64823
31.5483,66213
31.5541,60929
31.5598,59430
31.5655,54394
31.5712,57471
31.577,53555
31.5827,52880
31.5884,51831
31.5941,52871
31.5998,54328
31.6056,56286
31.6113,52397
31.617,55733
31.6227,55407
31.6285,56305
31.6342,54192
31.6399,51806
31.6456,51462
31.6513,54120
31.6571,56129
31.6628,61596
31.6685,62885
31.6742,66444
31.68,64153
31.6857,64630
31.6914,62544
31.6971,60671
31.7028,61883
31.7086,69315
31.7143,71509
31.72,84133
31.7257,109408
31.7315,148682
31.7372,214792
31.7429,337466
31.7486,516430
31.7543,722111
31.7601,1015028
31.7658,1342353
31.7715,1685025
31.7772,1978501
31.783,2184261
31.7887,2203779
31.7944,2054429
31.8001,1624561
31.8058,1132544
31.8116,715460
31.8173,435483
31.823,277023
31.8287,199861
31.8345,161683
31.8402,145133
31.8459,139456
31.8516,138934
31.8573,135683
31.8631,138386
31.8688,142266
31.8745,142105
31.8802,142670
31.8859,144768
31.8917,149111
31.8974,141879
31.9031,145076
31.9088,143302
31.9146,141504
31.9203,135433
31.926,134213
31.9317,126955
31.9374,118308
31.9432,116532
31.9489,115090
31.9546,112303
31.9603,102187
31.9661,92745
31.9718,87827
31.9775,78990
31.9832,75710
31.9889,70559
31.9947,67720
32.0004,70790
32.0061,65967
32.0118,65352
32.0176,65110
32.0233,59411
32.029,64191
32.0347,63049
32.0404,64260
32.0461,66194
32.0519,71358
32.0576,78813
32.0633,87003
32.069,103515
32.0748,107880
32.0805,113255
32.0862,113824
32.0919,108647
32.0977,105771
32.1034,97245
32.1091,85789
32.1148,77769
32.1206,70990
32.1263,64429
32.132,62101
32.1377,57579
32.1434,57307
32.1491,53504
32.1549,53794
32.1606,55684
32.1663,55816
32.172,56172
32.1778,56213
32.1835,53021
32.1892,56047
32.1949,55596
32.2007,52955
32.2064,54388
32.2121,57014
32.2178,59345
32.2235,63051
32.2293,67741
32.235,75602
32.2407,84742
32.2464,96628
32.2522,100570
32.2579,104358
32.2636,106327
32.2693,99171
32.275,89871
32.2808,78097
32.2865,66392
32.2922,57921
32.2979,51439
32.3036,49217
32.3094,49292
32.3151,46771
32.3208,46156
32.3265,49314
32.3323,51354
32.338,50227
32.3437,55846
32.3494,59481
32.3552,66018
32.3609,67950
32.3666,67950
32.3723,73859
32.378,73191
32.3837,71102
32.3895,73095
32.3952,78361
32.4009,95663
32.4066,118176
32.4124,153902
32.4181,206236
32.4238,258977
32.4295,311735
32.4353,349771
32.441,365549
32.4467,359479
32.4524,327374
32.4582,302532
32.4639,254074
32.4696,222954
32.4753,196755
32.481,172325
32.4868,151857
32.4925,140697
32.4982,129089
32.5039,119317
32.5097,111492
32.5154,103054
32.5211,99163
32.5268,90791
32.5325,87967
32.5382,85932
32.544,85121
32.5497,81319
32.5554,80474
32.5611,81548
32.5669,80954
32.5726,81551
32.5783,79889
32.584,82587
32.5898,82722
32.5955,85634
32.6012,86201
32.6069,86687
32.6126,88423
32.6184,90795
32.6241,86261
32.6298,89619
32.6355,91096
32.6412,85087
32.647,91031
32.6527,86544
32.6584,84452
32.6641,83406
32.6699,83422
32.6756,85731
32.6813,84720
32.687,82972
32.6927,83901
32.6985,85438
32.7042,84575
32.7099,83836
32.7156,82056
32.7214,80283
32.7271,78635
32.7328,75216
32.7385,72769
32.7443,72639
32.75,72828
32.7557,72663
32.7614,72745
32.7671,74636
32.7728,76668
32.7786,79457
32.7843,82945
32.79,81295
32.7957,85613
32.8015,86734
32.8072,84464
32.8129,84766
32.8186,78077
32.8244,74779
32.8301,73923
32.8358,67598
32.8415,67142
32.8473,62303
32.853,60310
32.8587,55230
32.8644,55877
32.8701,56778
32.8759,52767
32.8816,52062
32.8873,50461
32.893,51442
32.8987,49351
32.9045,49036
32.9102,48721
32.9159,48726
32.9216,49457
32.9273,50220
32.9331,52389
32.9388,55517
32.9445,57321
32.9502,56771
32.956,61330
32.9617,63284
32.9674,64349
32.9731,66671
32.9789,68738
32.9846,64920
32.9903,62223
32.996,60579
33.0017,61531
33.0075,61027
33.0132,59190
33.0189,60298
33.0246,63302
33.0303,72383
33.0361,79050
33.0418,85200
33.0475,97731
33.0532,102185
33.059,113077
33.0647,115893
33.0704,117237
33.0761,116237
33.0819,113528
33.0876,107966
33.0933,102360
33.099,97872
33.1047,88848
33.1105,87286
33.1162,83216
33.1219,80574
33.1276,71601
33.1334,75040
33.1391,71602
33.1448,68002
33.1505,67543
33.1562,65079
33.1619,60789
33.1677,57803
33.1734,54099
33.1791,55727
33.1848,50105
33.1906,49141
33.1963,49939
33.202,47978
33.2077,48577
33.2135,49180
33.2192,48074
33.2249,47779
33.2306,52436
33.2363,51099
33.2421,50032
33.2478,51838
33.2535,50149
33.2592,52461
33.2649,53870
33.2707,54865
33.2764,51456
33.2821,48742
33.2878,50931
33.2936,45599
33.2993,47325
33.305,47362
33.3107,43974
33.3165,44550
33.3222,43969
33.3279,41558
33.3336,41858
33.3393,44206
33.3451,42772
33.3508,46765
33.3565,46709
33.3622,44966
33.368,46096
33.3737,52414
33.3794,57207
33.3851,70663
33.3908,88076
33.3966,113476
33.4023,131815
33.408,158465
33.4137,187914
33.4194,190858
33.4252,186867
33.4309,175742
33.4366,145695
33.4423,130114
33.4481,110338
33.4538,98118
33.4595,84761
33.4652,78562
33.471,74895
33.4767,67291
33.4824,71831
33.4881,66381
33.4938,64540
33.4995,62987
33.5053,63875
33.511,61829
33.5167,59518
33.5224,60653
33.5282,59808
33.5339,59192
33.5396,62258
33.5453,61313
33.551,60462
33.5568,59107
33.5625,58686
33.5682,57470
33.574,57506
33.5797,58100
33.5854,58185
33.5911,59224
33.5968,62259
33.6026,65597
33.6083,61538
33.614,65256
33.6197,66157
33.6254,66446
33.6312,66422
33.6369,67189
33.6426,65569
33.6483,69881
33.654,69958
33.6598,72445
33.6655,66929
33.6712,70067
33.6769,84747
33.6827,90482
33.6884,95050
33.6941,102049
33.6998,107176
33.7056,107796
33.7113,109217
33.717,107709
33.7227,103801
33.7284,96502
33.7342,92677
33.7399,84300
33.7456,78846
33.7513,75600
33.7571,75000
33.7628,73201
33.7685,73682
33.7742,76918
33.7799,79378
33.7856,89453
33.7914,88339
33.7971,95576
33.8028,100043
33.8085,106409
33.8143,104950
33.82,106215
33.8257,111270
33.8314,105299
33.8372,100792
33.8429,98865
33.8486,96395
33.8543,89183
33.8601,87630
33.8658,83009
33.8715,84958
33.8772,83618
33.8829,82397
33.8886,81495
33.8944,79239
33.9001,75600
33.9058,73495
33.9115,73593
33.9173,72747
33.923,68432
33.9287,65601
33.9344,66095
33.9402,65878
33.9459,61765
33.9516,63833
33.9573,65137
33.963,62964
33.9688,64257
33.9745,64609
33.9802,68633
33.9859,68859
33.9917,70391
33.9974,72219
34.0031,70352
34.0088,70642
34.0145,71142
34.0203,69136
34.026,66802
34.0317,62883
34.0374,59174
34.0431,54711
34.0489,47182
34.0546,43009
34.0603,44906
34.066,41670
34.0718,43487
34.0775,42939
34.0832,43608
34.0889,42540
34.0947,40176
34.1004,39574
34.1061,41515
34.1118,39728
34.1175,38324
34.1232,38281
34.129,42575
34.1347,41409
34.1404,48712
34.1461,50786
34.1519,58055
34.1576,62173
34.1633,61625
34.169,58102
34.1748,57257
34.1805,51052
34.1862,46558
34.1919,39185
34.1977,37919
34.2034,34722
34.2091,32746
34.2148,34507
34.2205,35149
34.2263,34215
34.232,38321
34.2377,36577
34.2434,35785
34.2492,36689
34.2549,36082
34.2606,36841
34.2663,36406
34.272,35480
34.2777,35631
34.2835,34659
34.2892,34059
34.2949,36739
34.3006,31974
34.3064,33048
34.3121,32467
34.3178,34119
34.3235,33447
34.3293,33449
34.335,35446
34.3407,39076
34.3464,39069
34.3521,42089
34.3579,44971
34.3636,48265
34.3693,48108
34.375,48101
34.3807,45112
34.3865,43026
34.3922,43631
34.3979,38158
34.4036,38181
34.4094,37769
34.4151,36420
34.4208,37481
34.4265,40114
34.4323,43851
34.438,48663
34.4437,45876
34.4494,51199
34.4551,49371
34.4609,51333
34.4666,50736
34.4723,47758
34.478,45012
34.4838,39691
34.4895,35833
34.4952,32795
34.5009,34429
34.5066,31489
34.5123,30959
34.5181,29249
34.5238,30096
34.5295,28721
34.5352,31565
34.541,32140
34.5467,32702
34.5524,34130
34.5581,32330
34.5639,34308
34.5696,31377
34.5753,33992
34.581,32863
34.5868,35092
34.5925,34707
34.5982,35362
34.6039,34715
34.6096,34017
34.6153,35362
34.6211,33716
34.6268,31687
34.6325,28829
34.6382,33248
34.644,29931
34.6497,32088
34.6554,32747
34.6611,31827
34.6668,31845
34.6726,27988
34.6783,28594
34.684,27926
34.6897,29167
34.6955,30667
34.7012,27718
34.7069,28290
34.7126,27880
34.7184,30107
34.7241,29518
34.7298,29682
34.7355,29947
34.7412,31922
34.747,31637
34.7527,29570
34.7584,30267
34.7641,31622
34.7698,30550
34.7756,29800
34.7813,29498
34.787,28952
34.7927,28157
34.7985,27730
34.8042,29490
34.8099,28596
34.8156,27832
34.8214,27707
34.8271,26894
34.8328,26611
34.8385,28460
34.8442,29863
34.85,30682
34.8557,28651
34.8614,28788
34.8671,30497
34.8729,30108
34.8786,29261
34.8843,28521
34.89,33079
34.8957,31134
34.9014,32837
34.9072,31307
34.9129,34276
34.9186,32937
34.9243,34202
34.9301,32678
34.9358,32443
34.9415,33709
34.9472,32602
34.953,31444
34.9587,32584
34.9644,32734
34.9701,32246
34.9758,30933
34.9816,30644
34.9873,30483
34.993,29252
34.9987,27464
35.0044,30241
35.0102,28941
35.0159,26856
35.0216,26999
35.0273,27409
35.0331,27692
35.0388,28010
35.0445,30293
35.0502,29508
35.056,31181
35.0617,32461
35.0674,37053
35.0731,34177
35.0788,36325
35.0846,35491
35.0903,33381
35.096,33283
35.1017,30374
35.1075,29497
35.1132,27111
35.1189,27347
35.1246,26839
35.1303,26960
35.1361,27280
35.1418,25713
35.1475,27074
35.1532,27329
35.159,28002
35.1647,28170
35.1704,28654
35.1761,28920
35.1818,30503
35.1876,31742
35.1933,28870
35.199,29994
35.2047,29509
35.2105,32658
35.2162,31576
35.2219,35204
35.2276,32203
35.2333,33647
35.239,33967
35.2448,33165
35.2505,36607
35.2562,31590
35.2619,32911
35.2677,31953
35.2734,30010
35.2791,30297
35.2848,29590
35.2906,28971
35.2963,25640
35.302,25977
35.3077,23316
35.3134,25019
35.3192,24688
35.3249,24925
35.3306,26039
35.3363,24768
35.3421,24359
35.3478,23642
35.3535,25818
35.3592,27781
35.3649,25424
35.3707,25786
35.3764,25927
35.3821,28130
35.3878,26736
35.3936,24178
35.3993,24408
35.405,24664
35.4107,24259
35.4164,25786
35.4222,25377
35.4279,26455
35.4336,25891
35.4393,26567
35.4451,26408
35.4508,27298
35.4565,26279
35.4622,27135
35.4679,27572
35.4736,26160
35.4794,27149
35.4851,26898
35.4908,28218
35.4965,29464
35.5023,31287
35.508,30579
35.5137,30729
35.5194,31301
35.5252,28694
35.5309,29276
35.5366,29525
35.5423,28779
35.5481,25818
35.5538,27393
35.5595,26024
35.5652,27267
35.5709,27911
35.5767,30150
35.5824,29716
35.5881,30214
35.5938,29297
35.5996,30046
35.6053,30022
35.611,31665
35.6167,27586
35.6224,28474
35.6282,29646
35.6339,28222
35.6396,26967
35.6453,27627
35.651,27188
35.6568,28796
35.6625,28867
35.6682,31650
35.6739,33219
35.6797,35940
35.6854,35304
35.6911,37073
35.6968,37302
35.7025,34119
35.7083,33877
35.714,31809
35.7197,30188
35.7254,32958
35.7312,30327
35.7369,32604
35.7426,35032
35.7483,39276
35.754,43234
35.7598,46878
35.7655,49219
35.7712,55854
35.7769,55521
35.7827,58273
35.7884,52547
35.7941,52767
35.7998,48355
35.8055,47246
35.8113,43556
35.817,42074
35.8227,40152
35.8284,37246
35.8342,35930
35.8399,34691
35.8456,31285
35.8513,31668
35.857,31018
35.8627,31808
35.8685,29348
35.8742,28357
35.8799,28536
35.8856,28058
35.8914,32638
35.8971,32575
35.9028,38448
35.9085,41109
35.9143,43077
35.92,45121
35.9257,47939
35.9314,47372
35.9372,48602
35.9429,51343
35.9486,49756
35.9543,45188
35.96,44451
35.9658,41118
35.9715,42909
35.9772,41850
35.9829,40267
35.9887,42644
35.9944,43930
36.0001,45378
36.0058,52276
36.0115,52564
36.0173,58562
36.023,64239
36.0287,69832
36.0344,72634
36.0401,78879
36.0459,77439
36.0516,77003
36.0573,77708
36.063,74116
36.0688,74448
36.0745,73311
36.0802,71838
36.0859,73449
36.0916,78525
36.0974,74186
36.1031,71703
36.1088,71357
36.1145,64443
36.1202,61620
36.126,55822
36.1317,53260
36.1374,49073
36.1431,46151
36.1489,46106
36.1546,41301
36.1603,43344
36.166,44158
36.1718,42714
36.1775,44218
36.1832,42617
36.1889,43875
36.1946,44496
36.2004,47591
36.2061,50058
36.2118,52206
36.2175,51523
36.2233,55618
36.229,56668
36.2347,59380
36.2404,58583
36.2461,56225
36.2519,59899
36.2576,57669
36.2633,58807
36.269,55841
36.2748,55622
36.2805,53059
36.2862,50591
36.2919,46954
36.2976,46525
36.3034,43253
36.3091,44642
36.3148,41609
36.3205,39903
36.3263,37663
36.332,36432
36.3377,36426
36.3434,35307
36.3491,33588
36.3548,31462
36.3606,32552
36.3663,32789
36.372,35408
36.3777,34059
36.3835,36419
36.3892,36761
36.3949,34883
36.4006,34059
36.4064,34806
36.4121,34545
36.4178,35642
36.4235,34681
36.4292,34363
36.435,31468
36.4407,33078
36.4464,33399
36.4521,31703
36.4579,31005
36.4636,31001
36.4693,32212
36.475,30523
36.4807,32025
36.4865,34420
36.4922,36041
36.4979,39361
36.5036,44255
36.5094,48952
36.5151,56966
36.5208,57282
36.5265,57623
36.5322,54121
36.538,48598
36.5437,43992
36.5494,38562
36.5551,33928
36.5609,32064
36.5666,32129
36.5723,32176
36.578,32488
36.5837,31712
36.5894,31081
36.5952,29339
36.6009,29515
36.6066,29033
36.6123,26627
36.6181,24784
36.6238,25097
36.6295,26847
36.6352,24718
36.641,26268
36.6467,25923
36.6524,26256
36.6581,28359
36.6639,32124
36.6696,40114
36.6753,54109
36.681,75990
36.6867,104414
36.6925,137402
36.6982,171494
36.7039,196872
36.7096,201672
36.7153,202552
36.7211,184234
36.7268,159850
36.7325,139437
36.7382,119689
36.744,112234
36.7497,108505
36.7554,110028
36.7611,114855
36.7668,117813
36.7726,122302
36.7783,128935
36.784,136989
36.7897,141314
36.7955,146108
36.8012,152742
36.8069,154406
36.8126,158446
36.8183,159021
36.8241,153625
36.8298,151983
36.8355,145615
36.8412,143677
36.847,135368
36.8527,129161
36.8584,129388
36.8641,117679
36.8698,116455
36.8756,107711
36.8813,106663
36.887,98517
36.8927,96641
36.8985,90865
36.9042,86030
36.9099,84613
36.9156,80169
36.9213,75088
36.9271,69683
36.9328,67398
36.9385,68748
36.9442,63483
36.95,59134
36.9557,56837
36.9614,57333
36.9671,54474
36.9728,53999
36.9785,53379
36.9843,52733
36.99,50576
36.9957,53342
37.0014,51651
37.0072,48376
37.0129,47807
37.0186,46020
37.0243,45248
37.0301,44116
37.0358,45008
37.0415,43239
37.0472,43892
37.0529,44600
37.0587,47383
37.0644,49521
37.0701,48373
37.0758,52212
37.0816,54721
37.0873,55600
37.093,55746
37.0987,55063
37.1044,53010
37.1102,51899
37.1159,50403
37.1216,47114
37.1273,46558
37.1331,43785
37.1388,45806
37.1445,44075
37.1502,45862
37.1559,43456
37.1617,41288
37.1674,42728
37.1731,39777
37.1788,40260
37.1846,38715
37.1903,37886
37.196,35891
37.2017,36320
37.2074,34935
37.2131,35269
37.2189,31076
37.2246,32219
37.2303,30581
37.236,30516
37.2418,30236
37.2475,30777
37.2532,29556
37.2589,28030
37.2647,29904
37.2704,28735
37.2761,28866
37.2818,27222
37.2876,30032
37.2933,27243
37.299,26391
37.3047,27849
37.3104,28354
37.3162,25898
37.3219,28716
37.3276,26691
37.3333,26879
37.3391,27172
37.3448,25856
37.3505,27238
37.3562,25491
37.3619,26272
37.3677,26639
37.3734,23479
37.3791,24891
37.3848,26407
37.3905,25169
37.3963,25148
37.402,25157
37.4077,25694
37.4134,27545
37.4192,26822
37.4249,28032
37.4306,29192
37.4363,27600
37.442,27715
37.4478,26739
37.4535,26868
37.4592,28006
37.4649,26965
37.4706,26886
37.4764,25450
37.4821,24871
37.4878,22639
37.4935,25862
37.4993,25410
37.505,25365
37.5107,25780
37.5164,24153
37.5222,27586
37.5279,25073
37.5336,28025
37.5393,26699
37.545,29518
37.5508,33243
37.5565,32929
37.5622,35052
37.5679,36336
37.5737,38035
37.5794,40425
37.5851,38826
37.5908,37569
37.5965,39506
37.6023,38427
37.608,36262
37.6137,35863
37.6194,35349
37.6252,34381
37.6309,34124
37.6366,32219
37.6423,34143
37.648,31357
37.6538,30721
37.6595,31793
37.6652,30984
37.6709,31707
37.6767,32389
37.6824,34800
37.6881,33794
37.6938,32640
37.6995,34245
37.7052,35599
37.711,33891
37.7167,34412
37.7224,31520
37.7281,31840
37.7339,30128
37.7396,28932
37.7453,27994
37.751,26913
37.7568,26279
37.7625,25451
37.7682,24044
37.7739,25444
37.7796,25203
37.7854,24087
37.7911,25263
37.7968,27715
37.8025,28801
37.8083,31159
37.814,36539
37.8197,38817
37.8254,40990
37.8311,43765
37.8369,43868
37.8426,42331
37.8483,42284
37.854,41529
37.8598,35131
37.8655,32802
37.8712,31693
37.8769,27008
37.8826,25545
37.8884,27029
37.8941,24429
37.8998,23984
37.9055,23437
37.9113,24629
37.917,25246
37.9227,25860
37.9284,24366
37.9341,24857
37.9399,23150
37.9456,23314
37.9513,23716
37.957,22547
37.9628,23144
37.9685,24862
37.9742,26134
37.9799,25171
37.9856,26237
37.9914,26901
37.9971,26545
38.0028,25130
38.0085,26294
38.0143,24474
38.02,23854
38.0257,23023
38.0314,21889
38.0371,22900
38.0429,22221
38.0486,22079
38.0543,22969
38.06,22839
38.0657,25904
38.0715,25158
38.0772,25642
38.0829,25290
38.0886,24762
38.0943,23750
38.1001,21778
38.1058,22937
38.1115,23780
38.1172,24315
38.123,24122
38.1287,26579
38.1344,32368
38.1401,35414
38.1459,44933
38.1516,51829
38.1573,61137
38.163,72481
38.1687,86713
38.1745,102030
38.1802,110396
38.1859,117603
38.1916,121294
38.1974,118662
38.2031,121328
38.2088,120451
38.2145,108663
38.2202,97853
38.226,87944
38.2317,73812
38.2374,67550
38.2431,59660
38.2489,53710
38.2546,47843
38.2603,44369
38.266,41662
38.2717,41683
38.2775,38718
38.2832,41983
38.2889,41603
38.2946,46878
38.3004,45850
38.3061,46684
38.3118,50537
38.3175,51961
38.3232,52564
38.3289,56977
38.3347,61798
38.3404,62020
38.3461,58353
38.3518,64511
38.3576,67004
38.3633,66933
38.369,67797
38.3747,68405
38.3805,70226
38.3862,69739
38.3919,73729
38.3976,71015
38.4033,71241
38.4091,68114
38.4148,68558
38.4205,71424
38.4262,65922
38.432,66330
38.4377,66040
38.4434,62598
38.4491,63062
38.4548,61729
38.4606,58916
38.4663,58091
38.472,55174
38.4777,54806
38.4835,50377
38.4892,47452
38.4949,47091
38.5006,44987
38.5063,44967
38.5121,41249
38.5178,45130
38.5235,43847
38.5292,44080
38.535,41728
38.5407,40472
38.5464,37986
38.5521,37100
38.5578,33497
38.5636,32545
38.5693,30745
38.575,28748
38.5807,28552
38.5864,29795
38.5922,34874
38.5979,35197
38.6036,35056
38.6093,35333
38.6151,31410
38.6208,29503
38.6265,27967
38.6322,25661
38.638,23273
38.6437,23014
38.6494,25974
38.6551,26510
38.6608,25741
38.6666,26654
38.6723,29026
38.678,29576
38.6837,27077
38.6895,28754
38.6952,25466
38.7009,28574
38.7066,26198
38.7123,26655
38.7181,24336
38.7238,23229
38.7295,20699
38.7352,21276
38.741,23454
38.7467,21599
38.7524,23637
38.7581,21316
38.7638,20850
38.7696,20898
38.7753,21743
38.781,21614
38.7867,21238
38.7924,20856
38.7982,20465
38.8039,21482
38.8096,23586
38.8153,24528
38.8211,25916
38.8268,27726
38.8325,27600
38.8382,28934
38.8439,29682
38.8497,28574
38.8554,28003
38.8611,27717
38.8668,27620
38.8726,27082
38.8783,27400
38.884,26454
38.8897,28619
38.8954,28345
38.9012,28021
38.9069,30280
38.9126,27446
38.9183,26743
38.9241,23485
38.9298,23170
38.9355,24899
38.9412,23632
38.9469,22548
38.9526,22306
38.9584,21433
38.9641,22862
38.9698,21327
38.9755,19776
38.9813,21876
38.987,18909
38.9927,19025
38.9984,19552
39.0042,19201
39.0099,20794
39.0156,20444
39.0213,21113
39.0271,20874
39.0328,21375
39.0385,23550
39.0442,26611
39.0499,26901
39.0557,28066
39.0614,28041
39.0671,30362
39.0728,27840
39.0786,26098
39.0843,22780
39.09,24313
39.0957,23529
39.1014,21552
39.1072,23197
39.1129,22192
39.1186,22580
39.1243,21457
39.13,23226
39.1358,25640
39.1415,24379
39.1472,26630
39.1529,25713
39.1587,24143
39.1644,21318
39.1701,23427
39.1758,19824
39.1815,21141
39.1873,21000
39.193,19997
39.1987,22550
39.2044,20820
39.2101,21177
39.2159,22099
39.2216,23959
39.2273,24630
39.233,28566
39.2388,35656
39.2445,45529
39.2502,56404
39.2559,63054
39.2617,71291
39.2674,76699
39.2731,78664
39.2788,73908
39.2845,68350
39.2903,63001
39.296,54651
39.3017,53827
39.3074,47230
39.3132,45375
39.3189,39594
39.3246,39534
39.3303,38693
39.336,36366
39.3418,33372
39.3475,32515
39.3532,35116
39.3589,32601
39.3647,31779
39.3704,31696
39.3761,32010
39.3818,32802
39.3875,31259
39.3933,29969
39.399,29113
39.4047,28111
39.4104,26753
39.4162,28465
39.4219,29768
39.4276,27656
39.4333,26576
39.439,26811
39.4447,29050
39.4505,27350
39.4562,30163
39.4619,28649
39.4676,32877
39.4734,42332
39.4791,56551
39.4848,85519
39.4905,109431
39.4963,132273
39.502,141712
39.5077,138128
39.5134,134214
39.5191,152235
39.5249,165630
39.5306,179881
39.5363,195667
39.542,203652
39.5478,199187
39.5535,205609
39.5592,198080
39.5649,195633
39.5706,185122
39.5764,176157
39.5821,163658
39.5878,158272
39.5935,142425
39.5993,134845
39.605,120984
39.6107,113737
39.6164,103358
39.6221,91526
39.6279,89961
39.6336,87422
39.6393,89090
39.645,90654
39.6508,95189
39.6565,94241
39.6622,85303
39.6679,77028
39.6736,69591
39.6793,63219
39.6851,55683
39.6908,52206
39.6965,49812
39.7022,49857
39.708,46135
39.7137,47264
39.7194,44359
39.7251,45219
39.7309,42748
39.7366,42815
39.7423,42841
39.748,39577
39.7538,42081
39.7595,40157
39.7652,39844
39.7709,39752
39.7766,40486
39.7824,38415
39.7881,41507
39.7938,39843
39.7995,39215
39.8052,38920
39.811,36621
39.8167,37392
39.8224,37665
39.8281,37240
39.8339,39456
39.8396,40320
39.8453,41049
39.851,46633
39.8567,56223
39.8625,72966
39.8682,79287
39.8739,85700
39.8796,76016
39.8854,62107
39.8911,54805
39.8968,49173
39.9025,46141
39.9082,42486
39.914,38893
39.9197,39386
39.9254,38093
39.9311,37918
39.9369,37419
39.9426,36683
39.9483,36426
39.954,36503
39.9597,35824
39.9655,36218
39.9712,39915
39.9769,38390
39.9826,38291
39.9884,37319
39.9941,39096
39.9998,41769
40.0055,41449
40.0112,44221
40.017,45867
40.0227,46399
40.0284,45114
40.0341,45393
40.0399,46387
40.0456,46109
40.0513,45500
40.057,47508
40.0627,45594
40.0684,40378
40.0742,44160
40.0799,38889
40.0856,40834
40.0913,39680
40.0971,38510
40.1028,40005
40.1085,40211
40.1142,38970
40.12,38698
40.1257,38837
40.1314,39070
40.1371,42740
40.1428,48075
40.1486,53539
40.1543,55432
40.16,55423
40.1657,50830
40.1715,50457
40.1772,46954
40.1829,43870
40.1886,44970
40.1943,42313
40.2001,45574
40.2058,42907
40.2115,42340
40.2172,43191
40.223,43301
40.2287,43988
40.2344,43951
40.2401,42295
40.2458,45464
40.2516,48194
40.2573,53420
40.263,56636
40.2687,54858
40.2745,52163
40.2802,50527
40.2859,46335
40.2916,46284
40.2973,46952
40.303,44022
40.3088,46518
40.3145,42795
40.3202,42669
40.3259,44743
40.3317,44850
40.3374,45669
40.3431,47499
40.3488,43378
40.3546,45186
40.3603,43665
40.366,44608
40.3717,44087
40.3775,45514
40.3832,47748
40.3889,46254
40.3946,46165
40.4003,45548
40.4061,48402
40.4118,45181
40.4175,44887
40.4232,46083
40.429,44819
40.4347,46580
40.4404,46018
40.4461,46269
40.4518,45825
40.4576,47174
40.4633,45182
40.469,48808
40.4747,48864
40.4804,48019
40.4862,49610
40.4919,46046
40.4976,48216
40.5033,46604
40.5091,47632
40.5148,47872
40.5205,47414
40.5262,46957
40.5319,46354
40.5377,47661
40.5434,50203
40.5491,47675
40.5548,51035
40.5605,49113
40.5663,50006
40.572,50581
40.5777,54711
40.5834,48271
40.5892,51033
40.5949,52930
40.6006,51975
40.6063,52085
40.6121,51782
40.6178,55531
40.6235,52878
40.6292,51317
40.6349,52696
40.6407,51584
40.6464,50711
40.6521,52292
40.6578,53233
40.6636,53747
40.6693,55561
40.675,56046
40.6807,55089
40.6864,56540
40.6922,55775
40.6979,57727
40.7036,55146
40.7093,57958
40.7151,55685
40.7208,57907
40.7265,55841
40.7322,54196
40.7379,53964
40.7437,58434
40.7494,57829
40.7551,62759
40.7608,65310
40.7666,63329
40.7723,64100
40.778,62714
40.7837,60143
40.7894,63558
40.7952,65341
40.8009,63619
40.8066,69970
40.8123,72176
40.818,75223
40.8238,77282
40.8295,84386
40.8352,90880
40.8409,95428
40.8467,104656
40.8524,121069
40.8581,126390
40.8638,135227
40.8695,142787
40.8753,151983
40.881,161021
40.8867,170657
40.8924,178727
40.8982,187779
40.9039,182910
40.9096,178517
40.9153,174084
40.921,165030
40.9268,155509
40.9325,142719
40.9382,135857
40.9439,132854
40.9497,121707
40.9554,114246
40.9611,113228
40.9668,106262
40.9725,107558
40.9783,107008
40.984,99862
40.9897,95602
40.9954,96025
41.0012,92664
41.0069,94366
41.0126,96466
41.0183,91740
41.024,88052
41.0298,87493
41.0355,86308
41.0412,86529
41.0469,84727
41.0527,86503
41.0584,85985
41.0641,89073
41.0698,89049
41.0755,97148
41.0813,99455
41.087,105841
41.0927,102575
41.0984,97307
41.1042,97446
41.1099,99947
41.1156,102692
41.1213,103939
41.127,106585
41.1328,111253
41.1385,117761
41.1442,124031
41.1499,130105
41.1556,139029
41.1614,144044
41.1671,145347
41.1728,149169
41.1785,152474
41.1842,164917
41.19,162190
41.1957,160421
41.2014,158822
41.2071,153532
41.2129,147933
41.2186,144109
41.2243,139151
41.23,133054
41.2358,129281
41.2415,129927
41.2472,123297
41.2529,118546
41.2586,119455
41.2644,117374
41.2701,118961
41.2758,115522
41.2815,116276
41.2873,119023
41.293,115627
41.2987,117265
41.3044,117634
41.3101,114336
41.3159,116663
41.3216,118395
41.3273,117577
41.333,117194
41.3388,113789
41.3445,122764
41.3502,122213
41.3559,126898
41.3616,133089
41.3674,140723
41.3731,155415
41.3788,180300
41.3845,202292
41.3903,236247
41.396,281287
41.4017,331607
41.4074,384443
41.4131,425741
41.4188,459322
41.4246,481054
41.4303,487649
41.436,497713
41.4417,488594
41.4475,468506
41.4532,450244
41.4589,421566
41.4646,389449
41.4704,361586
41.4761,328909
41.4818,303793
41.4875,273192
41.4932,250550
41.499,224148
41.5047,209849
41.5104,195875
41.5161,187067
41.5219,176845
41.5276,173435
41.5333,172461
41.539,166761
41.5447,161454
41.5505,155349
41.5562,155799
41.5619,158222
41.5676,166368
41.5734,172173
41.5791,181178
41.5848,174216
41.5905,164490
41.5962,152464
41.602,150927
41.6077,148711
41.6134,141323
41.6191,142050
41.6249,145263
41.6306,143772
41.6363,140971
41.642,142536
41.6477,142446
41.6535,145716
41.6592,146656
41.6649,142848
41.6706,146788
41.6763,146110
41.6821,144009
41.6878,143036
41.6935,140654
41.6992,138392
41.705,146586
41.7107,138636
41.7164,137217
41.7221,141518
41.7279,137427
41.7336,142911
41.7393,153667
41.745,153331
41.7507,154401
41.7565,160358
41.7622,160853
41.7679,170777
41.7736,171216
41.7794,170266
41.7851,167633
41.7908,162009
41.7965,156976
41.8022,157698
41.808,167352
41.8137,176206
41.8194,174190
41.8251,167457
41.8309,163072
41.8366,165643
41.8423,173926
41.848,177356
41.8537,170100
41.8595,155182
41.8652,150729
41.8709,146556
41.8766,146083
41.8823,150598
41.8881,146310
41.8938,149552
41.8995,153010
41.9052,160543
41.911,164063
41.9167,166035
41.9224,168528
41.9281,168551
41.9338,164922
41.9396,163084
41.9453,163334
41.951,165968
41.9567,163527
41.9625,162188
41.9682,164023
41.9739,163141
41.9796,161866
41.9853,158789
41.9911,164829
41.9968,161327
42.0025,162159
42.0082,167167
42.014,161341
42.0197,162829
42.0254,161323
42.0311,161278
42.0368,165242
42.0425,167574
42.0483,165678
42.054,164213
42.0597,167309
42.0655,170918
42.0712,167557
42.0769,168945
42.0826,168802
42.0883,167553
42.0941,170653
42.0998,174695
42.1055,172950
42.1112,177831
42.117,174770
42.1227,187318
42.1284,197788
42.1341,201266
42.1398,194477
42.1456,188524
42.1513,181150
42.157,182257
42.1627,186128
42.1685,181810
42.1742,183100
42.1799,180015
42.1856,183694
42.1913,186377
42.1971,187427
42.2028,183530
42.2085,187199
42.2142,192545
42.2199,205099
42.2257,235684
42.2314,237190
42.2371,232927
42.2428,217683
42.2486,208679
42.2543,209372
42.26,198898
42.2657,203662
42.2714,204014
42.2772,201212
42.2829,201693
42.2886,197807
42.2943,197980
42.3,196187
42.3058,199058
42.3115,203802
42.3172,204390
42.3229,207376
42.3287,203978
42.3344,205269
42.3401,207839
42.3458,209607
42.3516,210630
42.3573,209322
42.363,210126
42.3687,207598
42.3744,214454
42.3802,215110
42.3859,220375
42.3916,225364
42.3973,232288
42.4031,225522
42.4088,224484
42.4145,223698
42.4202,221110
42.4259,222429
42.4317,223537
42.4374,224512
42.4431,224277
42.4488,228165
42.4546,234003
42.4603,243165
42.466,232094
42.4717,240071
42.4774,250781
42.4832,242589
42.4889,251198
42.4946,253274
42.5003,259627
42.5061,261898
42.5118,261219
42.5175,256334
42.5232,251345
42.5289,250929
42.5346,252950
42.5404,250939
42.5461,249444
42.5518,251660
42.5575,251444
42.5633,250419
42.569,255784
42.5747,263204
42.5804,282336
42.5862,291959
42.5919,285427
42.5976,271385
42.6033,262943
42.609,258325
42.6148,265945
42.6205,272963
42.6262,286317
42.6319,290729
42.6377,291584
42.6434,302400
42.6491,310567
42.6548,334292
42.6605,351478
42.6663,365315
42.672,382572
42.6777,395965
42.6834,389818
42.6892,375697
42.6949,358167
42.7006,341309
42.7063,328595
42.712,323312
42.7178,310004
42.7235,309320
42.7292,303758
42.7349,305203
42.7407,305135
42.7464,302181
42.7521,301308
42.7578,298657
42.7635,301061
42.7693,298848
42.775,299682
42.7807,302805
42.7864,311520
42.7921,312949
42.7979,337379
42.8036,405583
42.8093,489670
42.815,515779
42.8208,461377
42.8265,397721
42.8322,373386
42.8379,372040
42.8437,367752
42.8494,371049
42.8551,381791
42.8608,371673
42.8665,378934
42.8723,376266
42.878,372315
42.8837,375498
42.8894,381840
42.8951,390413
42.9009,387982
42.9066,386705
42.9123,388192
42.918,382032
42.9238,389591
42.9295,381752
42.9352,392299
42.9409,395931
42.9466,401402
42.9524,399654
42.9581,408990
42.9638,405242
42.9695,405116
42.9753,401545
42.981,396643
42.9867,387016
42.9924,390986
42.9981,378960
43.0039,378612
43.0096,369802
43.0153,369732
43.021,367290
43.0268,365311
43.0325,369408
43.0382,365274
43.0439,366902
43.0496,353127
43.0554,351367
43.0611,355569
43.0668,356210
43.0725,353348
43.0783,347471
43.084,350293
43.0897,347828
43.0954,348044
43.1011,346662
43.1069,348473
43.1126,342635
43.1183,343025
43.124,342622
43.1298,340337
43.1355,340232
43.1412,332016
43.1469,333443
43.1526,331315
43.1583,329626
43.1641,336538
43.1698,343354
43.1755,360093
43.1812,410332
43.187,440214
43.1927,445644
43.1984,415807
43.2041,386716
43.2099,365689
43.2156,346253
43.2213,346768
43.227,343989
43.2327,336558
43.2385,333894
43.2442,337768
43.2499,339139
43.2556,336998
43.2614,340529
43.2671,334590
43.2728,337644
43.2785,361979
43.2842,459153
43.29,690742
43.2957,1067125
43.3014,1425127
43.3071,1487257
43.3129,1249404
43.3186,919133
43.3243,707911
43.33,571416
43.3357,498109
43.3415,460140
43.3472,425560
43.3529,409106
43.3586,399079
43.3644,388685
43.3701,388874
43.3758,387205
43.3815,378313
43.3872,378121
43.3929,374552
43.3987,375585
43.4044,371544
43.4101,368410
43.4158,358197
43.4216,358672
43.4273,351671
43.433,349614
43.4387,351717
43.4445,354352
43.4502,346687
43.4559,351285
43.4616,342170
43.4674,347658
43.4731,342294
43.4788,347118
43.4845,349291
43.4902,349123
43.496,361330
43.5017,370404
43.5074,389105
43.5131,405259
43.5189,417933
43.5246,438156
43.5303,465155
43.536,492910
43.5417,531752
43.5475,576272
43.5532,583047
43.5589,560285
43.5646,527596
43.5703,498407
43.5761,486009
43.5818,475397
43.5875,457549
43.5932,453928
43.599,429323
43.6047,421679
43.6104,415597
43.6161,410443
43.6218,408678
43.6276,418691
43.6333,424498
43.639,435924
43.6447,433007
43.6504,416980
43.6562,416810
43.6619,407317
43.6676,398551
43.6733,392903
43.6791,384434
43.6848,383128
43.6905,385310
43.6962,379503
43.702,382427
43.7077,377235
43.7134,375834
43.7191,379522
43.7248,389033
43.7306,392458
43.7363,396150
43.742,412495
43.7477,427039
43.7535,446770
43.7592,456581
43.7649,472758
43.7706,472392
43.7763,460092
43.7821,446974
43.7878,437461
43.7935,421624
43.7992,409887
43.805,403365
43.8107,403501
43.8164,387568
43.8221,378595
43.8278,374609
43.8336,374035
43.8393,371427
43.845,378368
43.8507,408841
43.8565,509140
43.8622,679662
43.8679,909273
43.8736,1087615
43.8793,1019023
43.8851,829618
43.8908,643493
43.8965,526479
43.9022,470989
43.9079,459632
43.9137,499616
43.9194,603036
43.9251,752922
43.9308,866858
43.9366,870794
43.9423,757132
43.948,621449
43.9537,519125
43.9594,465474
43.9652,434361
43.9709,419955
43.9766,408760
43.9823,411395
43.9881,426049
43.9938,449626
43.9995,489757
44.0052,526995
44.0109,553825
44.0167,601063
44.0224,677366
44.0281,732879
44.0338,719038
44.0396,645494
44.0453,568415
44.051,499206
44.0567,462010
44.0624,440313
44.0682,423308
44.0739,412662
44.0796,398747
44.0853,395192
44.0911,399903
44.0968,396554
44.1025,391542
44.1082,387380
44.1139,381916
44.1197,380941
44.1254,390381
44.1311,390281
44.1368,390670
44.1426,396035
44.1483,387838
44.154,388520
44.1597,381063
44.1654,379579
44.1712,369407
44.1769,371505
44.1826,364889
44.1883,363474
44.1941,364850
44.1998,358507
44.2055,360510
44.2112,358419
44.2169,360082
44.2227,361826
44.2284,359847
44.2341,358355
44.2398,359542
44.2456,358335
44.2513,360252
44.257,369231
44.2627,373173
44.2684,386072
44.2741,421023
44.2799,464013
44.2856,495171
44.2913,492098
44.297,474805
44.3028,445706
44.3085,421359
44.3142,408309
44.3199,393129
44.3257,388640
44.3314,386243
44.3371,384332
44.3428,401328
44.3485,423031
44.3543,456735
44.36,474999
44.3657,479560
44.3714,460193
44.3772,441967
44.3829,426984
44.3886,422698
44.3943,427602
44.4,452900
44.4058,497235
44.4115,559625
44.4172,617602
44.4229,614800
44.4287,578818
44.4344,531359
44.4401,479852
44.4458,455572
44.4515,432993
44.4573,425259
44.463,416503
44.4687,412496
44.4744,421585
44.4802,433912
44.4859,439382
44.4916,459317
44.4973,456262
44.503,439598
44.5087,445344
44.5145,471150
44.5202,516522
44.5259,562496
44.5316,574691
44.5374,551652
44.5431,512064
44.5488,471030
44.5545,446000
44.5603,420290
44.566,410586
44.5717,403024
44.5774,399810
44.5832,392658
44.5889,395935
44.5946,389178
44.6003,391687
44.606,390521
44.6118,393614
44.6175,387403
44.6232,389660
44.6289,389883
44.6346,383429
44.6404,385530
44.6461,383654
44.6518,381943
44.6575,376101
44.6633,378463
44.669,370995
44.6747,373995
44.6804,372110
44.6861,363514
44.6919,367682
44.6976,356933
44.7033,359270
44.709,361166
44.7148,367242
44.7205,363187
44.7262,358180
44.7319,357130
44.7376,358980
44.7434,361823
44.7491,359894
44.7548,358212
44.7605,364170
44.7662,361504
44.772,358475
44.7777,360164
44.7834,359655
44.7891,361603
44.7949,361407
44.8006,361474
44.8063,364301
44.812,361746
44.8178,359047
44.8235,356893
44.8292,358441
44.8349,355955
44.8406,360680
44.8464,355003
44.8521,350263
44.8578,353867
44.8635,351274
44.8693,354428
44.875,352787
44.8807,350014
44.8864,354984
44.8921,353083
44.8979,351276
44.9036,356838
44.9093,356951
44.915,359517
44.9208,371485
44.9265,370694
44.9322,373191
44.9379,366003
44.9436,367880
44.9494,364958
44.9551,362635
44.9608,372031
44.9665,383414
44.9722,400426
44.978,433779
44.9837,480152
44.9894,545221
44.9951,622726
